"","% change","variation","adjusted","ticker"
"1",0,-0.699996999999996,107.949129,"EOG"
"2",1.84929143800688,2.449997,109.945423,"EOG"
"3",0.84010864190317,0.169998000000007,110.869084,"EOG"
"4",2.14100082219494,2.25,113.242792,"EOG"
"5",0.00877230225832053,-1.17999999999999,113.252726,"EOG"
"6",-1.43821703682434,-1.55999799999999,111.623906,"EOG"
"7",1.02322346612741,0.95999900000001,112.766068,"EOG"
"8",1.99048972781422,2.660004,115.010665,"EOG"
"9",1.88255671767483,0.929999999999993,117.175806,"EOG"
"10",-0.483132157844939,-1.109993,116.609692,"EOG"
"11",-3.73903997619682,-4.160003,112.249609,"EOG"
"12",2.65439677388987,2.69999700000001,115.229159,"EOG"
"13",-0.5171503508066,-0.260002,114.633251,"EOG"
"14",0.363886565513179,0.609993000000003,115.050386,"EOG"
"15",0.880528988403396,0.779999000000004,116.063438,"EOG"
"16",-0.265273031115965,-0.889999000000003,115.755553,"EOG"
"17",-0.274559614431631,-0.629998000000001,115.437735,"EOG"
"18",0.44738577034624,0.480002999999996,115.954187,"EOG"
"19",-0.873658835622734,-0.669999000000004,114.941143,"EOG"
"20",0.216020124317014,0.609999999999999,115.189439,"EOG"
"21",0.500080567281872,0.459999999999994,115.765479,"EOG"
"22",-1.37268209290612,0.0800019999999932,114.176387,"EOG"
"23",-1.13952458488637,-2.089996,112.875319,"EOG"
"24",1.79498584628584,1.04000000000001,114.901415,"EOG"
"25",-1.8387876250262,-1.47000199999999,112.788622,"EOG"
"26",3.22637153949801,2.479995,116.427602,"EOG"
"27",-1.32365175742432,-1.92999999999999,114.886506,"EOG"
"28",0.424057634758252,0.680000000000007,115.373691,"EOG"
"29",0.0947954417094977,0.290001000000004,115.48306,"EOG"
"30",0.34438297703577,-0.199996999999996,115.880764,"EOG"
"31",-0.514805028382447,-0.75,115.284204,"EOG"
"32",0.215609763849349,-0.280006,115.532768,"EOG"
"33",-1.18760506110266,-0.760002,114.160695,"EOG"
"34",-1.24542777179134,-1.43000099999999,112.738906,"EOG"
"35",0.749623204610485,0.970000999999996,113.584023,"EOG"
"36",-0.533963302215492,-1.20000499999999,112.977526,"EOG"
"37",-3.68740239541093,-3.39999399999999,108.81159,"EOG"
"38",-1.2792414852131,-0.610000999999997,107.419627,"EOG"
"39",3.48944518304834,3.06999999999999,111.167976,"EOG"
"40",-2.8441104297878,-3.18000099999999,108.006236,"EOG"
"41",-1.83190440966761,-0.390000000000001,106.027665,"EOG"
"42",-0.543888238979895,-1.56999900000001,105.450993,"EOG"
"43",1.6217248897789,1.70999900000001,107.161118,"EOG"
"44",0.482468837251217,-0.419997999999993,107.678137,"EOG"
"45",-1.48661190154135,-1.199997,106.077381,"EOG"
"46",-0.318684338558476,-1.310006,105.739329,"EOG"
"47",-2.27550337490793,-3.29000099999999,103.333227,"EOG"
"48",2.07831794510782,2.119995,105.48082,"EOG"
"49",-0.622109308592783,-1.22000199999999,104.824614,"EOG"
"50",1.51759299585878,0.930001000000004,106.415425,"EOG"
"51",0.233578919597419,0.190003000000004,106.663989,"EOG"
"52",-0.0838886683677255,-0.309997999999993,106.57451,"EOG"
"53",-0.858294351998437,-0.319998999999996,105.659787,"EOG"
"54",1.57147392318708,1.010002,107.320203,"EOG"
"55",1.35260273408166,0.540001000000004,108.771819,"EOG"
"56",-0.722121784136007,-0.81999900000001,107.986354,"EOG"
"57",-0.202560779114741,0.0699990000000099,107.767616,"EOG"
"58",1.37466342393619,1.079994,109.249058,"EOG"
"59",-1.97488018615227,-1.860001,107.09152,"EOG"
"60",0.0278518784680593,-1.11,107.121347,"EOG"
"61",-2.9051399064278,-3.150001,104.009322,"EOG"
"62",0.544880967496356,0.830002000000007,104.576049,"EOG"
"63",-3.58432837714112,-2.65999599999999,100.8277,"EOG"
"64",-0.0986157573761904,-0.31999900000001,100.728268,"EOG"
"65",0.690953010330718,1.08000199999999,101.424253,"EOG"
"66",1.02930706327214,2.12999799999999,102.46822,"EOG"
"67",-1.6883351735787,-1.18000000000001,100.738213,"EOG"
"68",0.582317258297993,1.110001,101.324829,"EOG"
"69",3.24796106983808,2.889999,104.61582,"EOG"
"70",-0.0285100284067935,-0.459999999999994,104.585994,"EOG"
"71",-0.199637630254774,-0.839996999999997,104.377201,"EOG"
"72",-0.581063675006961,-0.869995000000003,103.770703,"EOG"
"73",-2.51988656181697,-2.08000199999999,101.155799,"EOG"
"74",-0.884608701474451,-0.710007000000004,100.260966,"EOG"
"75",1.28917369497518,1.199997,101.553504,"EOG"
"76",-1.74270500799264,-2.27999800000001,99.783726,"EOG"
"77",1.51454456611492,1.50999400000001,101.294995,"EOG"
"78",-0.0098099614892065,1.06999999999999,101.285058,"EOG"
"79",-2.79768907275543,-2.830001,98.451417,"EOG"
"80",-2.19147480629964,-2.360001,96.293879,"EOG"
"81",0.216828942990239,1.29999599999999,96.502672,"EOG"
"82",-0.504839907438003,-1.150001,96.015488,"EOG"
"83",-1.53257045363349,-1.75,94.543983,"EOG"
"84",-1.55641634010701,-1.40999600000001,93.072485,"EOG"
"85",1.01484557976506,1.25,94.017027,"EOG"
"86",-2.7495753508564,-1.68000000000001,91.431958,"EOG"
"87",-2.3162218619446,-1.239998,89.314191,"EOG"
"88",-6.75720726172171,-5.489998,83.279046,"EOG"
"89",0.0955042160305331,-1.560006,83.358581,"EOG"
"90",5.37575129787778,6.139999,87.839731,"EOG"
"91",3.51593403672878,6.079995,90.928118,"EOG"
"92",-0.0547773352132931,-2.979996,90.87831,"EOG"
"93",1.68822681671788,1.130005,92.412542,"EOG"
"94",3.52522279930358,1.680001,95.67029,"EOG"
"95",-4.12371071520741,-4.69000200000001,91.725124,"EOG"
"96",1.44455514718084,-0.839995999999999,93.050144,"EOG"
"97",-1.391865659015,-0.849998999999997,91.755011,"EOG"
"98",-3.98479708100084,-1.849999,88.09876,"EOG"
"99",3.47167201899322,2.69000200000001,91.15726,"EOG"
"100",1.7814170807679,-1.110001,92.781151,"EOG"
"101",-0.977124114358085,-0.349998999999997,91.874564,"EOG"
"102",3.06875034530776,3.10000600000001,94.693965,"EOG"
"103",-1.82009803898274,-1.73000300000001,92.970442,"EOG"
"104",-3.25760955293727,0.610000999999997,89.941828,"EOG"
"105",6.44661124743873,0.599997999999999,95.740028,"EOG"
"106",2.98647499873303,3.77999899999999,98.59928,"EOG"
"107",0.586037747942995,-0.169997999999993,99.177109,"EOG"
"108",-1.05474943819949,-2.510002,98.131039,"EOG"
"109",0.25380756439357,0.25,98.380103,"EOG"
"110",-1.20506582514963,-1.12000200000001,97.194558,"EOG"
"111",-1.75276685758476,-0.650002000000001,95.490964,"EOG"
"112",2.41002070101627,1.84000400000001,97.792316,"EOG"
"113",-1.84393321863857,-0.660004000000001,95.989091,"EOG"
"114",1.37000463938137,1.34999800000001,97.304146,"EOG"
"115",0.675749212166153,-0.419998000000007,97.961678,"EOG"
"116",1.12885265195232,0.990005000000011,99.067521,"EOG"
"117",2.31294775206902,-0.75,101.358901,"EOG"
"118",-2.14271758925247,-1.62000200000001,99.187066,"EOG"
"119",-2.8324620470173,-3.540001,96.37763,"EOG"
"120",-2.75997345027056,-2.550003,93.717633,"EOG"
"121",-7.81332900287826,-0.440003000000004,86.395166,"EOG"
"122",0.599627298592135,1.720001,86.913215,"EOG"
"123",3.50757131697407,2.920006,89.961758,"EOG"
"124",1.66112916557276,0.0900040000000075,91.456139,"EOG"
"125",1.30718616931774,2.209999,92.651641,"EOG"
"126",-2.41935488223032,-1.160004,90.410069,"EOG"
"127",-2.82093358428915,-0.889999999999986,87.859661,"EOG"
"128",1.08855758048053,2.150002,88.816064,"EOG"
"129",-2.64722494345166,0.410004000000001,86.464903,"EOG"
"130",0.0806546906089593,-0.33000100000001,86.534641,"EOG"
"131",-0.564124371880159,1.060005,86.046478,"EOG"
"132",-1.19255084444013,-1.75,85.02033,"EOG"
"133",0.152337682057932,1.61,85.149848,"EOG"
"134",6.6339049718562,3.52999800000001,90.798608,"EOG"
"135",1.4373458236276,-1.380005,92.103698,"EOG"
"136",2.77988078176841,1.39,94.664071,"EOG"
"137",0.0420972810265034,0.849998999999997,94.703922,"EOG"
"138",1.42016293686337,0.670006000000001,96.048872,"EOG"
"139",-2.44787986682447,-1.55999799999999,93.697711,"EOG"
"140",-0.244554533461331,-1.08000200000001,93.468569,"EOG"
"141",0.543596639422184,-0.220001000000011,93.976661,"EOG"
"142",-1.7279811633231,-0.800003000000004,92.352762,"EOG"
"143",-0.679609344006414,0.0999989999999968,91.725124,"EOG"
"144",0.184640796996913,1.229996,91.894486,"EOG"
"145",-6.02775121893603,-3.27999899999999,86.355315,"EOG"
"146",-2.84956287867169,-1.629997,83.894566,"EOG"
"147",-0.629378069611802,-1.5,83.366552,"EOG"
"148",3.82408882641566,2.15999600000001,86.554563,"EOG"
"149",0.667589298556096,0.440001999999993,87.132392,"EOG"
"150",-3.37296719686061,-0.599998999999997,84.193445,"EOG"
"151",0.650804822156891,0.0899969999999968,84.74138,"EOG"
"152",3.35485449965529,3.66999800000001,87.58433,"EOG"
"153",-1.37907317439089,-2.510002,86.376478,"EOG"
"154",4.36842539470062,3.449997,90.14977,"EOG"
"155",-1.08514641801083,0.240005999999994,89.171513,"EOG"
"156",1.35452787483823,-0.0499949999999956,90.379366,"EOG"
"157",-0.198807546403902,-1.01999600000001,90.199685,"EOG"
"158",0.475874167409787,0.720001000000011,90.628922,"EOG"
"159",1.69622341971583,1.099999,92.166191,"EOG"
"160",0.725655462966888,1.05999799999999,92.835,"EOG"
"161",-5.2688188721926,-4.23000399999999,87.943692,"EOG"
"162",0.919415573319356,-0.209998999999996,88.75226,"EOG"
"163",0.134962197018968,0.869995000000003,88.872042,"EOG"
"164",3.9200247024818,1.529999,92.355848,"EOG"
"165",4.0964130392696,1.589997,96.139125,"EOG"
"166",-1.16290636096387,0.790000000000006,95.021117,"EOG"
"167",1.05053069414034,0.480003000000011,96.019343,"EOG"
"168",-0.415845378154694,-1.199997,95.620051,"EOG"
"169",0.167027729361909,-0.650001000000003,95.779763,"EOG"
"170",-0.719118505231638,-1.39,95.090993,"EOG"
"171",-2.16250870363715,-0.639999000000003,93.034642,"EOG"
"172",1.71674546777962,-0.159995999999992,94.63181,"EOG"
"173",2.23628080240671,0.979996,96.748043,"EOG"
"174",-0.443664788134268,0.409996000000007,96.318806,"EOG"
"175",-1.22292525096292,-1.18000000000001,95.140899,"EOG"
"176",-1.58429762157283,7.120003,93.633584,"EOG"
"177",-2.8997886057635,-2.00999400000001,90.918408,"EOG"
"178",0.93324445364243,1.87000200000001,91.766899,"EOG"
"179",-0.348090655215441,-1.239997,91.447467,"EOG"
"180",1.55004730748857,1.489998,92.864946,"EOG"
"181",-3.11727635097101,-1.68000099999999,89.970089,"EOG"
"182",-0.454893403517693,-0.909996000000007,89.560821,"EOG"
"183",-0.735626351616408,-0.660003000000003,88.901988,"EOG"
"184",1.47092436223136,1.39,90.209669,"EOG"
"185",0.132781775310583,0.290001000000004,90.329451,"EOG"
"186",-0.994587025664543,-0.260002,89.431046,"EOG"
"187",-1.13851514159859,-0.349998000000014,88.41286,"EOG"
"188",-0.959691836685292,-0.360000999999997,87.564369,"EOG"
"189",-1.74418432684645,-0.689994999999996,86.037085,"EOG"
"190",0.417682677185065,0.130004999999997,86.396447,"EOG"
"191",-0.970542226117226,-1.34000400000001,85.557933,"EOG"
"192",-0.37335170310859,0.190002000000007,85.238501,"EOG"
"193",2.93945690105461,2.790001,87.74405,"EOG"
"194",-1.25142046668692,-0.0599979999999931,86.646003,"EOG"
"195",4.4470049010801,4.58000200000001,90.499155,"EOG"
"196",-1.24642047762766,0.129997000000003,89.371155,"EOG"
"197",1.28448826693578,0.930000000000007,90.519117,"EOG"
"198",-1.85266942009609,-2.25,88.842097,"EOG"
"199",-0.179779637574283,-0.360000999999997,88.682377,"EOG"
"200",1.26069692516248,0.279998999999989,89.800393,"EOG"
"201",1.5562482003837,-0.129997000000003,91.19791,"EOG"
"202",-0.875659321578744,-0.0600050000000039,90.399327,"EOG"
"203",1.7447010418562,0.5,91.976525,"EOG"
"204",-0.488383313024704,0.560005000000004,91.527327,"EOG"
"205",-0.512598821988974,-0.820000000000007,91.058159,"EOG"
"206",1.63341211411928,2.40999599999999,92.545514,"EOG"
"207",2.32984928907521,1.510002,94.701685,"EOG"
"208",-0.632450204027517,-0.929999999999993,94.102744,"EOG"
"209",-0.2439758823611,-0.970000999999996,93.873156,"EOG"
"210",1.77583781246259,1.599998,95.540191,"EOG"
"211",0.919441327053667,0.719993000000002,96.418627,"EOG"
"212",-1.96707115524473,-2.05999799999999,94.522004,"EOG"
"213",2.05031095193454,0.799994999999996,96.459999,"EOG"
"214",1.55504874098122,1.199997,97.959999,"EOG"
"215",0.0408340143000652,0.169998000000007,98,"EOG"
"216",-0.7857112244898,0.190001999999993,97.230003,"EOG"
"217",0.524524307584361,0.559997999999993,97.739998,"EOG"
"218",-1.1765930259176,-1.24000599999999,96.589996,"EOG"
"219",1.1491883693628,0.759994999999989,97.699997,"EOG"
"220",0.583418646369055,0.289994000000007,98.269997,"EOG"
"221",-1.57728304397934,-1.180001,96.720001,"EOG"
"222",0.661703880668902,-0.190002000000007,97.360001,"EOG"
"223",1.12982537869941,0.819999999999993,98.459999,"EOG"
"224",1.30001931038005,1.519997,99.739998,"EOG"
"225",-0.792060372810519,-1.050003,98.949997,"EOG"
"226",-0.0505255194701982,-0.309996999999996,98.900002,"EOG"
"227",0.495446906057699,0.279998000000006,99.389999,"EOG"
"228",-4.87976461293656,-4.15999599999999,94.540001,"EOG"
"229",0.57118785094998,-1.129997,95.080002,"EOG"
"230",-1.66176058767857,-2.599998,93.5,"EOG"
"231",0,-0.980002999999996,93.5,"EOG"
"232",-2.02138930481284,-2.44000200000001,91.610001,"EOG"
"233",1.96485425210289,1.650002,93.410004,"EOG"
"234",-1.93770037736001,-2.440003,91.599998,"EOG"
"235",-0.949776221610838,-1.259995,90.730003,"EOG"
"236",-0.286566726995479,0.150001000000003,90.470001,"EOG"
"237",1.47010278025752,1.24000500000001,91.800003,"EOG"
"238",-1.6775609473564,-1.220001,90.260002,"EOG"
"239",0.221578767525394,-0.139999000000003,90.459999,"EOG"
"240",1.1386237136704,0.319999999999993,91.489998,"EOG"
"241",-1.34440488237851,-0.140000000000001,90.260002,"EOG"
"242",-1.22978060647506,-0.0999979999999994,89.150002,"EOG"
"243",-0.168257988373349,-0.129997000000003,89,"EOG"
"244",0.168541573033709,0.599998999999997,89.150002,"EOG"
"245",-0.515984284554468,-0.729996,88.690002,"EOG"
"246",0.0789265964837763,-0.259995000000004,88.760002,"EOG"
"247",1.13789429612677,0.75,89.769997,"EOG"
"248",-0.846602456720594,-0.540001000000004,89.010002,"EOG"
"249",-1.83126049137713,-0.850005999999993,87.379997,"EOG"
"250",2.63218480083034,2.68000000000001,89.68,"EOG"
"251",-0.635592105263169,-0.260002,89.110001,"EOG"
"252",-0.0224497809174052,-0.930001000000004,89.089996,"EOG"
"253",1.48165681812355,0.0200049999999976,90.410004,"EOG"
