"","EOG.Open","EOG.High","EOG.Low","EOG.Close","EOG.Volume","EOG.Adjusted"
"1",105.82,108.870003,105.82,108.769997,6913000,52.739728
"2",107.989998,109.910004,106.949997,109.860001,4579000,53.268243
"3",110.940002,112.160004,108.639999,108.949997,6218800,52.827006
"4",110.610001,111.029999,108.849998,110.360001,6059200,53.51068
"5",109.440002,111.419998,108.730003,110.389999,3497000,53.525225
"6",110.419998,111.139999,108.519997,110.059998,5131000,53.365216
"7",110,110.550003,108.980003,110.220001,6053600,53.442798
"8",112,113.900002,109.519997,110.610001,6072000,53.631898
"9",110.610001,111.349998,105.809998,106.449997,6003800,51.614821
"10",106.57,107.919998,105.260002,106.839996,5380000,51.803922
"11",105.82,108.220001,103.980003,104.589996,5616200,50.712955
"12",106.239998,109.970001,104.610001,109.779999,14346000,53.229452
"13",108.940002,109.57,104.940002,105.419998,6190600,51.115402
"14",103.330002,103.760002,99.529999,100.239998,8280600,48.603755
"15",100.260002,101.349998,98.050003,98.370003,7370200,47.697043
"16",98.519997,99.980003,95.779999,99.080002,6529800,48.041303
"17",98.690002,100.650002,97.57,98.339996,5203200,47.682494
"18",100.339996,102.699997,98.769997,99.849998,5190000,48.414654
"19",100.120003,103.82,99.230003,103.800003,5457800,50.329908
"20",104.879997,106.800003,103.75,106.220001,7048200,51.503302
"21",105.889999,106.889999,104.25,105.57,3729800,51.188133
"22",105.300003,106.599998,104.68,105.540001,3225400,51.173588
"23",106.989998,108.32,106.510002,106.809998,5246600,51.789376
"24",106.110001,108.470001,105.160004,106.639999,4206400,51.782095
"25",107,107,103.93,106.190002,4244400,51.563586
"26",105.120003,105.529999,101.129997,102.279999,6213400,49.664972
"27",102.68,103.519997,100.669998,102.010002,4603600,49.533868
"28",100.480003,104.489998,100.010002,104.150002,5762800,50.573005
"29",104.529999,104.639999,101.529999,102.419998,4824000,49.732953
"30",103.849998,104.739998,102.769997,103.199997,4220600,50.111704
"31",102.790001,103.209999,100.589996,102.330002,4672200,49.689253
"32",102.209999,104.419998,102.209999,103.720001,3420200,50.364206
"33",103.860001,103.940002,99.110001,100.559998,6075000,48.829776
"34",100.93,101.860001,100.019997,100.559998,3330600,48.829776
"35",101.730003,102.019997,99.470001,100.580002,3649600,48.83949
"36",99.580002,100.980003,97.139999,97.5,7647800,47.343907
"37",99.309998,102.849998,99.059998,102.510002,5238800,49.776657
"38",102.300003,102.849998,101.199997,101.699997,4207400,49.383336
"39",102.059998,103.75,101.519997,103,3199200,50.014589
"40",102.25,102.900002,101.120003,102.440002,3536800,49.742667
"41",96.449997,99.730003,95.25,99.260002,13765000,48.198527
"42",100.169998,100.599998,98.110001,99.940002,5257200,48.52872
"43",98.800003,101.410004,98.489998,100.699997,9591400,48.897757
"44",98.589996,99.18,96.730003,97.150002,4957600,47.173956
"45",95.389999,97.860001,95.029999,95.360001,5922400,46.30477
"46",95.309998,95.93,93.709999,94.169998,8137600,45.72693
"47",93.489998,94.190002,92.110001,94.089996,5392600,45.688083
"48",95.07,95.599998,93.790001,95.160004,4893600,46.207655
"49",94.769997,95,91.959999,93.349998,6057200,45.328756
"50",92.989998,93.589996,91.120003,91.519997,5907400,44.440146
"51",91.260002,91.699997,90.43,91.419998,5652400,44.391589
"52",91.629997,92.949997,91.389999,91.730003,3983200,44.542121
"53",90.300003,90.480003,87.540001,88.610001,7086000,43.027114
"54",87.910004,87.980003,85.419998,87.459999,7512000,42.468698
"55",88.080002,89.019997,86.18,86.620003,4585600,42.060814
"56",87.550003,89.610001,85.800003,89.400002,4313000,43.410722
"57",89.239998,89.93,87.529999,87.559998,4549800,42.517256
"58",87.150002,88.32,85.910004,86.870003,5759200,42.182209
"59",88.279999,90.059998,87.290001,89.940002,6198200,43.672935
"60",90.080002,90.080002,88.440002,89.489998,3262400,43.454422
"61",90.330002,91.379997,89.790001,90.330002,4177800,43.86231
"62",89.260002,89.889999,88.339996,88.709999,4334400,43.075672
"63",88.720001,90.629997,88.720001,90.269997,4197200,43.833173
"64",91.440002,91.5,88.519997,89.370003,3482000,43.396155
"65",89.620003,92.559998,89.620003,92.199997,6026600,44.77034
"66",93.150002,93.150002,91.639999,92.290001,3136800,44.814044
"67",91.870003,93.139999,91.300003,92.199997,3089800,44.77034
"68",91.739998,92.150002,90.730003,91.580002,5565200,44.469283
"69",92.190002,92.699997,90.440002,91,4964800,44.187647
"70",91.080002,91.080002,87.839996,89.110001,14141400,43.269904
"71",89.419998,89.870003,87.349998,87.730003,9566400,42.599807
"72",88,90.25,87.269997,89.620003,7783000,43.51755
"73",89.699997,90.93,89.699997,90.360001,7357200,43.876877
"74",89.300003,90.779999,88.629997,89.669998,4382800,43.541827
"75",91.139999,92.870003,90.059998,92.110001,5462400,44.726639
"76",92.239998,92.970001,91.190002,91.25,3128200,44.309042
"77",91.360001,91.980003,90.080002,91.779999,3562600,44.566398
"78",91.010002,93.940002,90.760002,93.82,5637600,45.556978
"79",94.480003,94.849998,91.709999,92.970001,5975800,45.144237
"80",94.110001,96.589996,93.980003,96.169998,6027800,46.698087
"81",95.370003,96.849998,95.18,95.720001,6281200,46.479578
"82",96.760002,97.760002,95.43,97.330002,4217800,47.26136
"83",97.269997,99.43,97.190002,98.519997,4737400,47.839196
"84",99.010002,99.07,97.620003,98.559998,3866000,47.858619
"85",98.68,99.82,97.970001,99.459999,3355800,48.295641
"86",99,100.639999,98.790001,99.559998,2612000,48.344198
"87",98.879997,99.440002,97.790001,98.910004,2613400,48.028575
"88",99.709999,100.230003,98.349998,98.75,5705800,48.026141
"89",97.870003,99.739998,97.870003,99.010002,4141400,48.152591
"90",99.699997,100.830002,99.150002,100.040001,6134200,48.653521
"91",99.870003,102.059998,99.559998,101.330002,4470600,49.280901
"92",99.779999,100.099998,98.540001,99.480003,6010000,48.381172
"93",99.559998,100.82,99.160004,100.120003,2897400,48.692429
"94",100.449997,101.68,97.68,98.800003,4220800,48.05046
"95",99.470001,99.480003,96.489998,97.309998,3956600,47.32581
"96",98.029999,98.919998,97.120003,97.459999,2669400,47.398761
"97",96.860001,97.68,95.18,95.75,4025000,46.567119
"98",94.919998,95.900002,93.660004,95.760002,3506000,46.571984
"99",96.389999,96.910004,94.339996,94.940002,2881000,46.173185
"100",94.519997,96.029999,94.139999,95.720001,4066800,46.55253
"101",96.879997,97.910004,95.360001,96.07,2844000,46.722748
"102",97.169998,98.360001,95.860001,97.739998,4069000,47.534936
"103",90.489998,90.5,86,88.639999,32201000,43.109237
"104",89.760002,89.760002,86.309998,88.290001,12523800,42.939018
"105",88.660004,88.860001,87,88.610001,7278200,43.094647
"106",89.209999,91.339996,88.75,89.459999,9334800,43.508036
"107",90.139999,92.809998,89.860001,91.989998,8864000,44.738477
"108",92.410004,94.089996,92.07,93.879997,5630200,45.657661
"109",93.220001,95,93.220001,94.110001,4416000,45.769521
"110",93.110001,93.449997,91.230003,92.050003,4709800,44.76766
"111",93.5,94.220001,92.080002,92.43,4264800,44.952468
"112",91.419998,91.419998,89.599998,91.050003,5232200,44.28132
"113",91.279999,91.919998,89.980003,90.169998,4036200,43.853337
"114",90.510002,92.720001,90.050003,92.110001,4851400,44.79684
"115",91.650002,93.07,91.139999,92.959999,4420400,45.210228
"116",92.690002,93.629997,90.980003,92.5,2544000,44.986512
"117",91.150002,91.199997,88.5,88.699997,5899600,43.138416
"118",89.300003,90.050003,88.540001,89.800003,3512800,43.673394
"119",88.970001,89.800003,88.839996,88.919998,924000,43.245412
"120",88.639999,89.629997,87.610001,89.220001,3600200,43.391315
"121",88.419998,89.870003,88.010002,88.949997,4456400,43.260001
"122",90.489998,91.720001,89.559998,91.629997,4811200,44.563394
"123",91.529999,93.989998,91.529999,93.860001,3973200,45.647936
"124",93.459999,94,92.779999,93.739998,3337800,45.589574
"125",93.550003,94.699997,93.510002,94.379997,2933400,45.900831
"126",95.550003,96.07,92.43,92.709999,4757200,45.088643
"127",93.169998,93.529999,91.410004,92.199997,2988600,44.840608
"128",92.349998,93.410004,91.769997,92.230003,4115200,44.855202
"129",91.93,92.43,90.730003,90.75,3956000,44.135416
"130",91.5,92.5,90.589996,90.699997,4532800,44.111097
"131",90.82,92.089996,90.18,91.650002,3678000,44.573123
"132",91.349998,92.190002,89.849998,90.120003,3600800,43.829023
"133",90.169998,90.709999,89.760002,90.510002,2003800,44.018695
"134",90.410004,91.800003,90.080002,91.669998,4847000,44.582848
"135",91.870003,92,89.879997,91.459999,4067000,44.480717
"136",91.730003,92.449997,91.089996,91.650002,1700000,44.573123
"137",91.910004,92.57,91.459999,92.199997,1766800,44.840608
"138",90.589996,92.059998,90.309998,91.449997,4685800,44.475853
"139",91.25,91.43,89.529999,90.120003,2715800,43.829023
"140",90.510002,90.650002,89.919998,89.980003,2696200,43.760935
"141",90.470001,91.540001,89.970001,91.190002,2110200,44.349407
"142",91.220001,92.059998,90.870003,91.75,2328400,44.621757
"143",91.650002,92.120003,91.309998,91.410004,2042400,44.456403
"144",92.449997,93.5,92.269997,92.349998,3500800,44.91356
"145",93.080002,93.279999,91.389999,92.139999,4125400,44.811429
"146",91.260002,92.989998,90.839996,92.330002,3472600,44.903835
"147",93.349998,94.43,92.300003,92.82,5178400,45.142141
"148",93.260002,94.349998,92.910004,94.260002,4830200,45.842473
"149",94.150002,95,93.82,94.949997,5149600,46.178045
"150",95.440002,96.870003,94.779999,96.730003,5838400,47.043735
"151",97.489998,99.32,96.93,98.489998,5176800,47.976568
"152",98.230003,98.580002,97.040001,97.860001,3336400,47.669683
"153",97.800003,100.709999,97.25,100.580002,4361200,48.994654
"154",100.830002,103.209999,100.330002,102.879997,6014600,50.11503
"155",102.849998,103,100.769997,101.440002,5794800,49.413578
"156",99.779999,101.489998,99.230003,101.360001,4891600,49.374608
"157",101.989998,102.580002,100.5,101.720001,4812000,49.549972
"158",101.349998,102.129997,100.610001,101.730003,3284600,49.554844
"159",101.580002,101.580002,98.940002,99.870003,3947600,48.648798
"160",100.379997,102.940002,100.25,102.279999,4638400,49.822758
"161",101.910004,104.139999,101.730003,103.25,5182200,50.295266
"162",103.370003,105.150002,102.169998,102.529999,5658800,49.944539
"163",102.739998,106.580002,102.739998,106.389999,4616000,51.824827
"164",106.720001,108.269997,105.849998,107.379997,4528000,52.307076
"165",107.010002,108.290001,106.339996,107.239998,2989600,52.238879
"166",106.889999,107.239998,105.620003,107.050003,1949000,52.146329
"167",107.300003,107.489998,105.709999,106.779999,3308400,52.014804
"168",107.360001,108.470001,105.440002,105.589996,3483600,51.435128
"169",105.82,105.82,103.550003,104.760002,4232000,51.030821
"170",104.300003,105.32,102.760002,103.949997,3408200,50.63625
"171",103.470001,104.690002,103.089996,104.239998,3645600,50.777515
"172",103.830002,104.510002,103.050003,103.300003,3040400,50.319624
"173",103.349998,106.529999,103.349998,104.900002,4243000,51.099017
"174",104.790001,106.190002,103.160004,103.550003,4232000,50.441404
"175",104.07,105.349998,102.940002,102.989998,4648400,50.168614
"176",103.279999,104.580002,102.339996,104.220001,6126400,50.767775
"177",106.839996,109.800003,106.809998,108.889999,7652200,53.04263
"178",109.860001,111.629997,108.089996,108.32,5797800,52.764971
"179",108.510002,114.739998,108.510002,114.389999,8300000,55.721797
"180",114.589996,115.169998,109.800003,110.169998,7247000,53.666144
"181",110.699997,112.489998,110.040001,111.75,3297800,54.435797
"182",112.089996,113.239998,111.550003,112.309998,3500200,54.708584
"183",109.5,112.190002,107.870003,107.93,9073000,52.574994
"184",105.849998,108.949997,104.379997,108.690002,15563600,52.945207
"185",109.309998,111.269997,107.980003,111.089996,6069800,54.114295
"186",110.809998,111.580002,108.389999,109.379997,4348800,53.281318
"187",110.239998,111.389999,108.18,108.580002,3717000,52.891623
"188",108.540001,108.900002,106.07,106.199997,3493200,51.732273
"189",106.139999,107.629997,105.199997,105.800003,3472400,51.537427
"190",104.529999,104.529999,102.410004,102.830002,5261800,50.090676
"191",102.610001,106.550003,102,105.650002,3767200,51.464358
"192",105.07,107.099998,104.129997,106.529999,3951200,51.893023
"193",103.279999,106.480003,102.650002,105.440002,4851800,51.362063
"194",105.800003,107.510002,103.07,104.489998,5072200,50.899296
"195",106.769997,109.160004,105.870003,108.68,4200000,52.940335
"196",109.760002,110.449997,107.040001,107.93,5936600,52.574994
"197",109.489998,111.459999,109,111.400002,4526000,54.265305
"198",112.339996,114.43,112.010002,113.360001,6558200,55.220062
"199",113.43,114.07,112,114.07,8087600,55.565918
"200",114.910004,115.699997,113.019997,115.550003,5755800,56.286859
"201",115.82,118.129997,114.760002,117.540001,5161000,57.256229
"202",116.769997,119.709999,116.339996,118.440002,6207200,57.694639
"203",117.510002,119.760002,115.800003,119.669998,6065400,58.293796
"204",120.300003,121.440002,118.360001,119.190002,7209400,58.05998
"205",119.239998,120.099998,118.419998,118.510002,5689400,57.728737
"206",119.169998,119.300003,117.82,118.389999,8316600,57.670281
"207",118.900002,119.82,118.07,118.370003,3827600,57.660541
"208",118.040001,118.739998,116.629997,116.919998,3861200,56.954213
"209",117.730003,117.959999,114.760002,114.809998,4067400,55.926387
"210",114.529999,115.68,112.760002,114.660004,4410400,55.853321
"211",115.459999,116.389999,113.800003,114.660004,3438800,55.853321
"212",114.559998,114.980003,111.860001,112.669998,2872000,54.883947
"213",111.529999,111.529999,108.160004,109.230003,5550400,53.208253
"214",110.089996,112.190002,109.639999,110.610001,3883000,53.959518
"215",109.699997,111.290001,108.699997,110.720001,3631600,54.01318
"216",110.849998,111.870003,109.559998,111.040001,3491400,54.169287
"217",109.709999,110.400002,107.839996,109.870003,3455800,53.59852
"218",109.910004,110.389999,108.489998,109.470001,3066000,53.403385
"219",111.330002,112.010002,110.449997,111.82,3606400,54.549798
"220",111.330002,112.279999,110.599998,111.870003,2048000,54.574192
"221",111.989998,112.190002,109.730003,110.339996,1935800,53.8278
"222",110.739998,111.769997,109.980003,111.720001,2200000,54.501016
"223",112.010002,112.199997,109.190002,111.760002,2500400,54.520529
"224",111.610001,113.050003,110.330002,111.980003,3068000,54.627854
"225",111.849998,113.550003,111.080002,113.050003,2631200,55.149838
"226",113.480003,113.800003,110.470001,110.940002,3705000,54.120504
"227",110.690002,110.699997,107.230003,108.150002,4120400,52.759442
"228",107.760002,107.760002,104.839996,106.279999,3866600,51.847188
"229",104.260002,105.43,101.839996,104.349998,6925400,50.905664
"230",109,111.360001,106.129997,107.440002,7192600,52.413079
"231",110.230003,111.900002,109.5,111.32,4764600,54.305881
"232",111.419998,111.779999,109.779999,110.849998,3331600,54.076597
"233",110.449997,110.68,106,106.690002,4347000,52.047202
"234",105.459999,106.910004,104.129997,105.519997,4428600,51.476431
"235",105.82,106.800003,104.410004,105.440002,3634800,51.437407
"236",105.169998,107.709999,104.230003,104.699997,3133600,51.076406
"237",104.129997,106.18,103.769997,105.610001,3940800,51.520339
"238",105.889999,107.470001,105.5,106.620003,3874200,52.013054
"239",106.970001,107.220001,105.07,105.989998,3097000,51.705715
"240",106.07,107.940002,104.879997,106.849998,4046400,52.125254
"241",105.099998,105.599998,103.970001,104.25,3889000,50.856882
"242",105.169998,107.089996,104.849998,106.059998,4681400,51.739863
"243",105.5,107.919998,105.5,107.199997,3190400,52.295996
"244",106.699997,107.5,105.389999,107.230003,2363800,52.310634
"245",107.879997,109.080002,107.389999,108.150002,2603400,52.759442
"246",110.010002,110.190002,107.099998,109.139999,3567400,53.242398
"247",109.510002,111.669998,107.959999,108.190002,6434800,52.778956
"248",108.410004,111.709999,108.410004,110.910004,6241000,54.10587
"249",109.349998,111.790001,107.800003,110.559998,4492400,53.935124
"250",110.540001,112.040001,109.029999,109.059998,5428800,53.203371
"251",109.510002,110.040001,108.019997,108.050003,4261000,52.710659
"252",108.120003,110.860001,108.120003,108.940002,3959800,53.144833
"253",109.559998,111.169998,109.029999,110.779999,3680400,54.042449
"254",110,110.459999,107.57,107.669998,3801000,52.525279
"255",107.989998,108.559998,103.650002,104.709999,5597000,51.081286
"256",106.260002,106.980003,104.620003,105.029999,5366400,51.237393
"257",104.150002,105.330002,102.25,102.870003,5424200,50.18367
"258",102.559998,103.550003,101.25,101.610001,5596400,49.568995
"259",102.410004,102.989998,100.709999,102.25,5916000,49.88121
"260",101.510002,101.910004,100.220001,100.900002,5040400,49.222632
"261",101.510002,103.18,101.230003,102.190002,4096800,49.851941
"262",101.730003,103.400002,101.220001,101.339996,5531800,49.437278
"263",99.059998,100.239998,96.620003,100.160004,5682800,48.861635
"264",100.080002,100.410004,98.07,98.269997,3929200,47.939622
"265",97.400002,100.43,97.209999,100.330002,5812400,48.944566
"266",100.599998,102.790001,99.989998,102.410004,3730000,49.959266
"267",102.629997,104.160004,101.589996,103.099998,3681200,50.29587
"268",103.550003,104.830002,103.239998,104.550003,3776600,51.003234
"269",104.370003,104.559998,102.389999,103.080002,6685000,50.286115
"270",103.309998,104.989998,102.949997,103.239998,2969800,50.364166
"271",103.040001,103.32,101.75,102.269997,2543800,49.890965
"272",103.669998,104.010002,102.440002,103.550003,3802200,50.515398
"273",101.980003,102.620003,101.160004,101.919998,3406200,49.720223
"274",100.440002,100.440002,98.57,99.010002,3145200,48.300623
"275",98.839996,100.110001,98.529999,98.889999,3965800,48.242081
"276",99.510002,101.089996,98.580002,98.940002,3888000,48.344696
"277",99.459999,99.580002,96.400002,96.709999,5437800,47.255058
"278",100,102.120003,99.739998,101.190002,13502400,49.444106
"279",101.389999,102.589996,100.480003,101.519997,5338400,49.60535
"280",102,104.279999,102,104.029999,4730200,50.831803
"281",104.809998,104.809998,103.529999,103.809998,4192600,50.724304
"282",104.639999,105.900002,104.089996,105.559998,3878600,51.579401
"283",105.550003,106.599998,105.010002,106.57,3288400,52.072914
"284",105.199997,107.459999,104.800003,106.209999,3798400,51.897009
"285",106.209999,107.879997,104.620003,106.57,4235200,52.072914
"286",106,106.019997,103.970001,104.07,4082000,50.851348
"287",104.040001,105.330002,103.07,103.43,4736800,50.538628
"288",102.18,103.360001,101.5,102,6388800,49.839892
"289",103.889999,104.32,100.489998,101.620003,3660800,49.654215
"290",100.860001,102.370003,99.080002,99.209999,4176600,48.476624
"291",99.269997,99.330002,95.57,97.980003,6110800,47.875615
"292",96.510002,96.510002,91.449997,92.129997,8768800,45.017148
"293",98.269997,101.220001,93.400002,95.919998,18031400,46.869043
"294",93.599998,93.809998,87.059998,88.599998,11371400,43.292297
"295",90.279999,91.900002,86.099998,90.860001,14977600,44.396594
"296",90.510002,91.080002,86.68,86.989998,11145200,42.505609
"297",87.959999,94.279999,86.949997,93.139999,9001200,45.510662
"298",96.779999,97.830002,93.139999,94.150002,7189600,46.004175
"299",95.190002,96.480003,94.629997,96.290001,5036000,47.049836
"300",95,95.699997,93.110001,94.580002,5794800,46.214285
"301",95.269997,97.050003,93.019997,94,4094600,45.930881
"302",91.660004,91.660004,86.849998,87.629997,7368400,42.818329
"303",86.620003,89.769997,86.5,87.57,6513600,42.789013
"304",89.900002,90.5,85.849998,86.349998,6204800,42.192888
"305",86.32,89,85.580002,88.970001,7207200,43.473091
"306",88.349998,90.029999,87.839996,89.919998,4626000,43.937284
"307",90.620003,91.230003,87.529999,88.260002,5556200,43.126166
"308",87.739998,90.160004,86,89.849998,4555800,43.90308
"309",91.220001,91.68,89.809998,91.550003,4200600,44.733748
"310",91.099998,92.75,89.75,92.199997,3328600,45.051352
"311",92.980003,94.169998,91.440002,92.589996,5493600,45.241916
"312",93.32,94.160004,91.290001,91.419998,3392800,44.670224
"313",89.349998,90.190002,87.82,88.349998,4919600,43.170141
"314",85.739998,87.110001,84.93,86.959999,5123200,42.49095
"315",88.480003,90.849998,88.099998,90.669998,3595000,44.303754
"316",89.620003,91.970001,88.769997,89.25,4854600,43.609905
"317",87.309998,88.279999,84.910004,85.32,5251200,41.689604
"318",84.529999,86.160004,83.919998,86.110001,4431800,42.075619
"319",86.43,87.419998,85.32,86.75,3189600,42.388339
"320",85.860001,88.860001,85.099998,87.75,4477600,42.876966
"321",88.870003,90.400002,88.120003,90.400002,3907000,44.171826
"322",91.129997,91.25,89.25,90.160004,5116800,44.054557
"323",88.120003,88.620003,85.959999,87.760002,3672000,42.881853
"324",88.209999,89.550003,86.870003,87.120003,3761600,42.569132
"325",86.970001,88.309998,83.410004,83.43,4491200,40.7661
"326",80.830002,80.93,75.129997,76.75,10625000,37.502075
"327",75.360001,77.169998,73.349998,73.720001,7707800,36.021538
"328",75.260002,76.790001,73.139999,76.68,7592000,37.467872
"329",78.650002,80.519997,78.040001,78.610001,6291800,38.410921
"330",78.730003,78.800003,74.139999,74.290001,4861000,36.300055
"331",76.029999,76.360001,71.879997,73.779999,6866600,36.050855
"332",71.389999,72.760002,69.550003,71.010002,7677800,34.697361
"333",70.139999,70.239998,67.790001,68.410004,9832600,33.426933
"334",67.339996,74.029999,66.809998,73.660004,12197400,35.992222
"335",73.709999,76.949997,73.220001,76.800003,7513400,37.526508
"336",76.370003,78.910004,75.510002,78.540001,5830000,38.376717
"337",79.050003,79.230003,74.730003,74.900002,6520600,36.598117
"338",76.839996,79.449997,76.739998,79.410004,5093800,38.801823
"339",78.639999,80.489998,77.970001,80.139999,6092600,39.158519
"340",80.800003,82.690002,80.300003,80.949997,4541200,39.554305
"341",80.019997,80.529999,77.639999,80.220001,4819000,39.275237
"342",82.089996,84.07,81.709999,83.980003,4630600,41.116112
"343",83.300003,84.099998,81.120003,81.410004,3861600,39.857855
"344",81.519997,86.610001,80.230003,86.019997,7436200,42.11488
"345",85.660004,89.18,85.510002,87.870003,8468200,43.020632
"346",87.510002,88.040001,85.089996,87.339996,6293400,42.761144
"347",88.959999,91.080002,88.209999,90.620003,5544800,44.367016
"348",91.110001,91.809998,90.239998,91.080002,6153600,44.592229
"349",91.080002,91.080002,87.25,87.519997,6034200,42.849272
"350",88.980003,89.269997,86.339996,87.419998,7715600,42.800313
"351",91,94,89.830002,92.839996,7409200,45.453912
"352",91.639999,95.260002,91.629997,95.18,6090000,46.599564
"353",93.389999,93.5,89.300003,89.43,5455200,43.784398
"354",85.989998,87,83.879997,85.879997,7520600,42.046338
"355",90.720001,97.82,90.129997,96.040001,16995200,47.020615
"356",97.580002,100.610001,96.190002,100.029999,9132800,48.974094
"357",98.839996,102.519997,98.279999,101.68,7401600,49.781925
"358",101.480003,102.400002,99.730003,101.169998,5557800,49.532231
"359",101.75,102.239998,99.449997,101.910004,4995600,49.894534
"360",99.440002,100.660004,98,98.230003,5810000,48.092827
"361",99.410004,100.769997,98.43,100.040001,4688400,48.978991
"362",101.209999,104.050003,101.169998,104.010002,4880000,50.92268
"363",102.940002,104.470001,101.300003,103.769997,5572800,50.805175
"364",103.330002,103.919998,102,102.360001,3845400,50.11485
"365",101.940002,103.410004,100.540001,100.690002,8456600,49.297228
"366",100.400002,101.300003,96.160004,97.019997,5014400,47.500415
"367",98.370003,99.860001,96.029999,97.839996,4463200,47.901882
"368",95.709999,96.650002,94.050003,96.010002,2933000,47.005928
"369",95.580002,96.309998,93.639999,94.980003,3498800,46.501647
"370",93.610001,93.889999,91.389999,91.610001,4856000,44.851713
"371",90.849998,92.839996,90.769997,90.870003,1223400,44.489415
"372",93.989998,96.790001,93.860001,95.589996,3889800,46.800296
"373",96.269997,98.919998,96.010002,98.230003,5018400,48.092827
"374",102.040001,104.410004,102.040001,103.739998,7282400,50.790488
"375",103.629997,104.989998,101.690002,102.529999,3870200,50.19808
"376",103.790001,104,102.120003,102.559998,3256000,50.212767
"377",103.989998,104.860001,101.230003,102.110001,5158000,49.992451
"378",102.459999,106.199997,102.080002,104.889999,4272200,51.353522
"379",104.110001,104.290001,101.660004,103.029999,4165800,50.442877
"380",102.540001,104.580002,100.129997,100.629997,4964600,49.26785
"381",100.470001,104.419998,100.470001,103.75,5692400,50.795385
"382",102.089996,102.260002,99.150002,101.050003,4360000,49.473482
"383",101.760002,103.129997,97.160004,98.5,5826000,48.225016
"384",96.980003,97.059998,93.110001,93.169998,9268200,45.615479
"385",94.559998,95.559998,93.010002,94.440002,6036000,46.237265
"386",95.43,97.900002,94.739998,97.68,7302000,47.823549
"387",97.510002,97.730003,95.199997,95.57,3772400,46.790505
"388",97.839996,99.190002,97.349998,97.970001,4700800,47.965532
"389",98.25,98.690002,96.519997,98.18,4880600,48.068346
"390",98.220001,98.639999,97.940002,98.330002,5866400,48.141786
"391",98.480003,99.129997,97.230003,98.269997,3113600,48.112408
"392",98.389999,99.739998,98.099998,99.010002,3238200,48.47471
"393",99.230003,99.489998,96.120003,96.440002,3013400,47.216454
"394",96.370003,98.18,96.370003,98.050003,2686600,48.0047
"395",98.050003,99.099998,97.790001,98.510002,2569800,48.229913
"396",100.610001,102.129997,100.400002,101.449997,5597400,49.669317
"397",101.459999,101.989998,100.620003,101.589996,4909000,49.73786
"398",101.150002,102.510002,99.82,102.150002,5075000,50.012035
"399",102.25,103.769997,102,102.43,4493000,50.149121
"400",102.470001,103.059998,101.5,102.169998,3525600,50.021825
"401",105.389999,107.269997,104.900002,105.519997,6240000,51.661965
"402",104.779999,105.489998,102.949997,103.169998,4476000,50.51142
"403",103.629997,104.699997,102.540001,103.879997,4658400,50.938028
"404",102.669998,103.449997,101.43,103.040001,3482800,50.526132
"405",104.699997,105.110001,102.660004,103.720001,3053600,50.859573
"406",103.620003,105.82,102.809998,105.370003,3217000,51.668659
"407",105.690002,106.529999,104.68,105.080002,5439600,51.526456
"408",104.870003,104.970001,102.440002,103.160004,5567800,50.584976
"409",104.830002,106.629997,104.370003,105.599998,5463000,51.781438
"410",104.629997,104.889999,103.5,104.550003,3867200,51.266568
"411",104.279999,107.199997,103.019997,106.809998,4330400,52.374767
"412",107.290001,107.5,104.230003,104.75,4547600,51.364638
"413",104.330002,105.260002,103.489998,104.120003,3197800,51.055716
"414",103.010002,105.43,102.169998,105.309998,4345600,51.639235
"415",105.57,106.269997,104.699997,106.139999,5577800,52.04623
"416",106.949997,106.980003,104.68,105.900002,6657200,51.928546
"417",105.650002,108.129997,104.959999,106.480003,4281400,52.212953
"418",108.029999,110.120003,107.099998,109.089996,4429800,53.492775
"419",109.470001,110.550003,108.769997,110.059998,6138400,53.968419
"420",110,111.5,109.050003,111.129997,3658800,54.493098
"421",111.440002,111.690002,109.550003,111.419998,3084400,54.635302
"422",111.050003,113.660004,110.879997,112.449997,3964600,55.140366
"423",110.769997,111.830002,110.160004,111.830002,3686800,54.836349
"424",112.540001,113.650002,112.18,113.379997,3973600,55.596396
"425",113.160004,113.82,112.370003,113.75,4835800,55.777829
"426",114.5,115.900002,113.349998,114.839996,5980600,56.312313
"427",114.989998,118.809998,114.529999,117.620003,6609800,57.675502
"428",119.07,119.970001,113.489998,114.349998,12338800,56.072041
"429",115.980003,116.989998,114.989998,115.650002,6828600,56.709503
"430",115.959999,117.510002,115.57,115.660004,5726800,56.714408
"431",115.849998,116.599998,114.5,116.5,4004000,57.126304
"432",116.660004,118.080002,116.190002,117.550003,3351800,57.641177
"433",117.330002,117.800003,115.620003,115.620003,4582600,56.694793
"434",115.919998,117.199997,115.5,116.610001,4872000,57.180243
"435",116.730003,117.199997,113.379997,113.860001,6444600,55.831768
"436",114.25,117.010002,114.25,116.910004,5143200,57.327351
"437",116.400002,116.779999,113.080002,113.900002,4699200,55.851383
"438",113.510002,113.620003,111.360001,113.199997,3162600,55.508132
"439",111.120003,112.809998,110.220001,112.720001,5257800,55.272764
"440",112.720001,113.669998,112.029999,113.139999,3895400,55.478712
"441",114.720001,115.32,113.32,114.410004,3130000,56.101464
"442",114.5,115.75,114.059998,114.980003,2713400,56.380966
"443",115.239998,115.239998,112.519997,113.730003,2890600,55.768023
"444",113.849998,116.940002,113.019997,116.849998,5206400,57.297927
"445",116.809998,116.949997,114.080002,114.68,3395400,56.233859
"446",114.839996,116.269997,114.050003,115.629997,3907200,56.699694
"447",116.360001,117.870003,115.790001,116.779999,5474600,57.263602
"448",116.650002,117.970001,116.110001,117.389999,3386200,57.562719
"449",116.139999,116.139999,114.150002,114.709999,3449600,56.248569
"450",114.709999,115.099998,113.07,113.809998,3303400,55.807249
"451",112.360001,113.139999,109.860001,110.349998,4562200,54.110623
"452",110.480003,112.650002,110.160004,111.730003,4599000,54.787314
"453",112.760002,113.199997,111.610001,112.160004,2741400,54.998167
"454",112.459999,112.529999,110.919998,111.279999,2920800,54.566652
"455",110.739998,110.949997,108.5,109.629997,3495600,53.757567
"456",108.489998,109.260002,107.150002,109.019997,2885200,53.45845
"457",109.480003,111.480003,108.760002,111.099998,3541200,54.478388
"458",110.989998,114.330002,110.32,113.349998,3899200,55.581686
"459",112.629997,113.699997,112.169998,113.559998,4647400,55.68466
"460",112.059998,112.389999,109.699997,110.519997,3127600,54.193982
"461",110.120003,111.470001,108.849998,109.18,4629800,53.536909
"462",106.949997,108.029999,106.610001,107.440002,5445200,52.683693
"463",107.440002,107.720001,103.809998,104,6604200,50.996872
"464",105.18,105.519997,102.510002,102.949997,6017200,50.481998
"465",103,105.650002,102.940002,105.220001,6345200,51.680446
"466",104.730003,105.300003,103.099998,103.330002,3018600,50.752143
"467",103.860001,105.120003,101.830002,102.769997,3074000,50.477088
"468",103.919998,105.309998,103.529999,104.800003,4108400,51.474157
"469",104.389999,104.980003,103.57,104.169998,3813400,51.164721
"470",104.300003,105.290001,103.309998,103.959999,3121600,51.061576
"471",104.889999,105.5,102.790001,103.029999,3376600,50.604792
"472",100.610001,103.769997,100.589996,103.599998,3771600,50.884756
"473",104.110001,104.93,103.400002,104.449997,4512400,51.302246
"474",105.379997,106.510002,104.589996,106.43,5718200,52.274756
"475",106.419998,108.879997,106.010002,108.519997,4686400,53.30129
"476",109.010002,109.239998,108.099998,109.019997,4275000,53.546873
"477",108.879997,109.940002,107.839996,109.809998,3000800,53.934894
"478",110.300003,112.239998,109.800003,111.230003,3552800,54.632352
"479",109.900002,109.900002,108.220001,109.279999,4145600,53.674577
"480",109,109.940002,107.220001,107.709999,3882200,52.903447
"481",106.400002,107.199997,104.379997,105.290001,4330600,51.714827
"482",104.470001,105.849998,103.290001,104.769997,3265000,51.459419
"483",103.620003,104.190002,100.410004,103.989998,4339600,51.076311
"484",103.809998,105.68,100.760002,105.099998,7535400,51.621505
"485",106.739998,107.330002,105.510002,106.510002,5334600,52.31405
"486",105.480003,106.550003,103.910004,104.230003,4469800,51.194193
"487",102.900002,102.900002,100.879997,101.040001,3667400,49.627373
"488",100.989998,101.699997,98.639999,99.209999,3836800,48.72854
"489",99.660004,101.599998,98.550003,98.949997,3981400,48.600835
"490",98.910004,99.32,97.160004,97.339996,3874400,47.810059
"491",97.889999,98.620003,95.779999,96.309998,4443200,47.304159
"492",97.330002,100.260002,97.290001,100.199997,4474000,49.214792
"493",101.589996,103.470001,100.470001,101.330002,5602000,49.769812
"494",100.290001,101.790001,97.779999,101.699997,5439800,49.951541
"495",102,102.389999,99.139999,100.790001,3806200,49.504582
"496",100.559998,102.43,100.559998,101.75,3559600,49.976101
"497",104.449997,105.32,103.160004,104.860001,4652600,51.503626
"498",103.339996,103.339996,99.900002,100.989998,5560600,49.602814
"499",100.75,100.849998,96.400002,99.300003,7350600,48.772746
"500",95.879997,96.139999,91.339996,91.669998,13415000,45.02515
"501",91.959999,92.169998,88.849998,90.400002,10072600,44.401372
"502",89.610001,92.230003,89.57,91.870003,6586000,45.123386
"503",93.040001,94.959999,92.830002,94.919998,5499000,46.621439
"504",96.580002,97.400002,94.410004,95.449997,6559000,46.881756
"505",93.82,94.129997,91.760002,93.879997,4717600,46.110626
"506",95.349998,96.099998,91.800003,91.93,4168200,45.152855
"507",92.610001,94.370003,92.230003,94.169998,3856800,46.253064
"508",93.790001,95.230003,92.019997,92.699997,4524600,45.53105
"509",92.900002,94.949997,92.220001,94.459999,5099200,46.395503
"510",94.889999,96.779999,93.910004,96.639999,5798600,47.466244
"511",96.029999,96.169998,94.360001,94.730003,4492600,46.52812
"512",95.690002,96.32,94.580002,95.949997,4502200,47.127339
"513",96.139999,96.769997,92.139999,92.940002,6199000,45.648933
"514",92.849998,93.269997,86.339996,86.480003,11919000,42.476003
"515",87.690002,87.970001,85.870003,87.620003,6630400,43.035932
"516",85.690002,85.879997,83.660004,84.900002,6179200,41.699961
"517",84.919998,85.559998,82.480003,83.959999,7419800,41.238264
"518",84.25,86.169998,84.080002,85.730003,10073800,42.107629
"519",85.199997,85.839996,83.889999,85.160004,8044200,41.827665
"520",87.949997,90.260002,87.57,90.110001,9941400,44.258933
"521",89.540001,89.940002,87.540001,88.940002,3431400,43.68427
"522",90,95,90,94.889999,5677200,46.606704
"523",94.080002,94.5,91.760002,92,4101600,45.187236
"524",89.769997,91.349998,89.07,90.639999,3424200,44.51925
"525",90.410004,92.870003,90.190002,91.489998,4715000,44.93674
"526",91.470001,91.959999,88.75,89.349998,4704200,43.885646
"527",89.709999,92.620003,89.709999,91.879997,5386200,45.128295
"528",90.160004,91.839996,89.089996,91.050003,5869600,44.72063
"529",91.370003,93.080002,91.199997,92.93,3690400,45.729399
"530",92.43,93.839996,91.290001,93.239998,3599000,45.881944
"531",94.18,95.43,92.330002,95.239998,5095000,46.866113
"532",94.849998,97.43,94.550003,96.699997,5117400,47.584556
"533",97.190002,98.629997,96.769997,98.25,6149800,48.347288
"534",97.470001,99.290001,96.25,99.230003,5496200,48.829532
"535",96.629997,97.480003,94.230003,97.199997,6470400,47.830598
"536",97.290001,97.900002,94.410004,95.5,3716000,46.994056
"537",96.489998,96.730003,94.209999,95.690002,3024400,47.087553
"538",97.339996,98.580002,96.260002,97.419998,4041800,47.938857
"539",97.970001,101.470001,97.449997,101.010002,4790200,49.705442
"540",100.68,101.620003,98.43,99.559998,3378400,48.991917
"541",99.419998,99.900002,97.949997,98.010002,3237800,48.229189
"542",98.93,101.190002,97.040001,100.449997,4492600,49.429872
"543",98.129997,99.129997,95.279999,96.120003,4967400,47.299149
"544",103.059998,108.75,102.139999,106.75,10517400,52.530005
"545",106.970001,107.330002,105.510002,105.739998,5040200,52.032999
"546",105.730003,109.5,105.57,108.739998,4976200,53.509252
"547",107.419998,109.059998,107.410004,107.900002,3798400,53.095903
"548",107.529999,110.800003,107.43,109.410004,4150800,53.838951
"549",108.110001,110.360001,108,109.989998,3002200,54.124357
"550",110.900002,110.900002,108.82,109.300003,2663200,53.784821
"551",110.260002,111.110001,109.709999,110.349998,3886600,54.301508
"552",109.68,110.730003,108.970001,109.82,2989200,54.040704
"553",109.760002,111.080002,109.400002,110.989998,3037200,54.616441
"554",110.5,111.360001,110.099998,111.190002,2636600,54.714861
"555",111.510002,111.559998,109.169998,109.57,2584200,53.917683
"556",110.279999,110.849998,108.269997,108.769997,3073800,53.524014
"557",108.550003,109.199997,107.099998,108.910004,3105400,53.592909
"558",108.75,109.18,106.440002,107.010002,2864600,52.657948
"559",106.959999,109.18,106.57,108.910004,4370400,53.592909
"560",108.980003,109.959999,108.160004,109.169998,2816200,53.720848
"561",109.239998,109.919998,108.040001,108.82,3514600,53.548619
"562",108.879997,108.980003,107.470001,108.050003,2580200,53.169716
"563",107.449997,107.449997,105.449997,105.889999,2562800,52.106812
"564",106.989998,108.610001,106.099998,108.300003,3420200,53.292737
"565",108.260002,109.75,107.190002,109.32,4144200,53.794661
"566",109.080002,109.510002,108.449997,108.540001,3174200,53.410836
"567",109.82,113.209999,109.599998,112.410004,4160800,55.315204
"568",110.949997,113.279999,110.730003,112.879997,4704400,55.546481
"569",113,114.470001,112.089996,112.400002,3535000,55.310282
"570",112.809998,113.459999,111.93,112.43,3332600,55.325044
"571",112.849998,113.940002,111.589996,112.980003,3305000,55.595692
"572",113.43,116.120003,111.800003,115.18,3997000,56.678276
"573",115.739998,119.690002,115.739998,117.620003,3856600,57.878963
"574",117.410004,118.230003,115.879997,116.400002,2922200,57.27862
"575",116.230003,116.82,114.57,115.879997,2282400,57.022734
"576",115.660004,115.790001,113.5,113.57,3288000,55.88602
"577",112.910004,114.080002,111.489998,113.550003,4148000,55.87618
"578",114.57,114.739998,113.25,113.949997,4015200,56.073011
"579",112.599998,113.739998,112.160004,113.209999,2492600,55.708869
"580",113.699997,114.410004,112.260002,112.419998,3068400,55.320122
"581",111.870003,112.080002,110.400002,110.599998,2732400,54.424529
"582",111.760002,113.769997,111.5,113.199997,1953800,55.703947
"583",112.599998,113,111.139999,112.050003,2295400,55.138053
"584",112.989998,114.690002,112.910004,114.190002,3422000,56.191114
"585",114.790001,115.279999,113.870003,115.139999,3617200,56.658592
"586",114.830002,115,110.800003,111.080002,4238000,54.660731
"587",111.93,112.25,110.650002,111.419998,4041200,54.828038
"588",111.510002,112.400002,109.5,109.910004,3295800,54.084993
"589",108.860001,109.970001,108.639999,109.82,2263000,54.040704
"590",109.910004,111.800003,109.279999,111.050003,2638800,54.645969
"591",110.849998,111.349998,109.190002,109.5,2658400,53.883237
"592",110.410004,111.269997,109.599998,109.830002,1995000,54.045626
"593",109.970001,110.309998,107.870003,108.779999,2558200,53.528935
"594",108.660004,110.580002,107.760002,110.25,2979000,54.337219
"595",111.709999,113.889999,111.510002,113.739998,3286200,56.057281
"596",114.540001,115.650002,113.57,115.239998,2874200,56.796562
"597",114.540001,115.080002,113.739998,114.75,2171600,56.555065
"598",114.529999,115.449997,112.57,113.07,3024000,55.727069
"599",112.779999,112.940002,110.43,112.110001,3717400,55.253929
"600",110.07,110.900002,109.029999,110.160004,4001000,54.292864
"601",110.879997,111.540001,109.769997,110.699997,3774200,54.559002
"602",112.050003,112.440002,110.910004,112.419998,2301600,55.406713
"603",112.290001,114.5,112.010002,114.089996,4463600,56.229779
"604",114.25,116.57,114.239998,116.489998,4601800,57.412631
"605",116.489998,118.599998,116.040001,116.879997,3662000,57.604844
"606",117.769997,118.510002,114.690002,115.199997,5006800,56.776848
"607",114.550003,117.07,114.550003,116.809998,4379000,57.570344
"608",123.389999,124.489998,121.300003,121.980003,8548400,60.118405
"609",120,120.949997,119.330002,120,6031800,59.142551
"610",119.870003,120.769997,115.709999,115.769997,4513600,57.057775
"611",115.629997,116.769997,114.449997,114.519997,4984600,56.441707
"612",115.089996,115.599998,113.440002,114.760002,2177600,56.559994
"613",113.900002,117.139999,113.690002,115.279999,3884800,56.816277
"614",115.379997,115.900002,113,113.360001,3100000,55.869997
"615",113.440002,116.550003,113.32,116.160004,4758000,57.249992
"616",117.25,117.459999,114.790001,116.669998,5257800,57.501345
"617",118.209999,120.800003,117.82,118.610001,3986000,58.457484
"618",118.389999,118.540001,116.550003,117.400002,2629400,57.86113
"619",117.790001,118.540001,117.400002,118.139999,2230200,58.225842
"620",118.5,119.150002,117.650002,118.989998,1168800,58.644767
"621",117.449997,117.830002,115.599998,116.650002,2502400,57.491489
"622",115.540001,116.059998,114.440002,115.080002,5118400,56.717708
"623",114.089996,116.589996,112.720001,116.349998,3223200,57.343631
"624",117.599998,118.419998,116.809998,117.639999,2838000,57.979414
"625",117.400002,118.410004,117.050003,117.620003,2897200,57.969559
"626",118.239998,119.099998,117.129997,117.239998,2572400,57.782272
"627",116.940002,118,116.690002,117.18,1801400,57.752702
"628",117.5,119.550003,117.339996,118.720001,3441200,58.511698
"629",118.290001,118.75,117,118.360001,2416600,58.33427
"630",118.709999,118.709999,116.93,117.349998,2670400,57.836486
"631",117.199997,117.860001,116.57,117.730003,2132400,58.023773
"632",118.32,119.5,117.970001,118.730003,2716000,58.516628
"633",119.199997,121.370003,118.720001,120.739998,3622600,59.507263
"634",120.309998,120.650002,118.349998,118.510002,3789200,58.408199
"635",118.379997,119.800003,118.040001,118.989998,2401800,58.644767
"636",119.389999,120.980003,118.779999,120.970001,2499600,59.620621
"637",121.080002,124.25,121,123.919998,3696200,61.074541
"638",123.599998,124.019997,122.440002,122.449997,3038800,60.350044
"639",122.790001,124.5,122.400002,124.370003,3053600,61.296327
"640",122.419998,124.160004,121.879997,123.57,4666400,60.902042
"641",123.110001,124.199997,122.68,122.769997,1560800,60.507757
"642",123.139999,123.150002,121.220001,121.550003,2096400,59.906478
"643",121.980003,122.150002,119.559998,121.629997,3196600,59.945903
"644",120.559998,120.93,118.5,118.610001,2196200,58.457484
"645",118.110001,120.980003,118,120.790001,3561800,59.531907
"646",123.400002,123.68,121.440002,123.68,3665200,60.956256
"647",123.489998,125.489998,122.470001,124.18,2928400,61.202684
"648",124.230003,126.25,123.949997,125.800003,2518600,62.00111
"649",125.209999,126.099998,124.150002,125.989998,2857800,62.094749
"650",125.75,125.989998,123.18,124.139999,3122400,61.182969
"651",124.360001,125.169998,123.690002,124.629997,1755200,61.424467
"652",125.400002,126.129997,124.559998,126.099998,2277000,62.148964
"653",126.059998,126.449997,125,125.629997,2264600,61.917321
"654",125.650002,126.279999,124.230003,124.660004,2046800,61.439256
"655",124.010002,125.5,123.75,125.099998,3347000,61.740305
"656",124.830002,125.5,124.389999,125.370003,3009800,61.873559
"657",126,126.550003,124.889999,126.029999,3449000,62.199285
"658",126.339996,127.080002,125.220001,126.790001,3532800,62.574368
"659",126.949997,127.339996,124.900002,126.5,3831400,62.431244
"660",126.160004,126.589996,124.5,124.75,2282000,61.567571
"661",124.900002,126.400002,124.790001,124.989998,2724000,61.686016
"662",125.370003,126.540001,124.540001,125.269997,2365000,61.824203
"663",125.809998,125.809998,123.550003,124.199997,2718400,61.296129
"664",124.660004,127.190002,124.010002,126.940002,2821400,62.648397
"665",127.169998,129.429993,126.169998,126.32,3195000,62.342409
"666",125.5,125.970001,124.5,124.980003,3528000,61.681084
"667",126.639999,128.789993,124.989998,128.600006,3367000,63.467655
"668",127.669998,127.790001,126.599998,127.290001,2681200,62.821131
"669",128.649994,129.270004,127.900002,128.820007,2044400,63.576232
"670",127.730003,129.919998,127.529999,129.669998,1729400,63.995726
"671",129.720001,130.110001,128.050003,129.770004,2315800,64.045081
"672",130.139999,133.389999,130.139999,133.279999,3602200,65.777361
"673",133.289993,133.679993,132.119995,133.339996,3396200,65.806971
"674",133.5,134.690002,132.800003,134.100006,3462400,66.182057
"675",134.100006,134.399994,132.699997,133.600006,3178000,65.935293
"676",138.070007,138.199997,133.080002,133.330002,5912000,65.802039
"677",133.259995,134,127.779999,129.190002,6343200,63.758835
"678",130.559998,131.580002,130.039993,131.399994,3935400,64.849526
"679",131.429993,131.740005,127.32,127.389999,4943600,62.870483
"680",126.489998,127.059998,123.550003,124.040001,5828200,61.217167
"681",125,125.839996,123.690002,125.339996,4546200,61.85875
"682",125.669998,126.959999,121.650002,121.769997,5190600,60.096857
"683",122.370003,123.849998,120.760002,123.5,3928600,60.950661
"684",123.110001,127.129997,122.769997,126.919998,4719000,62.638525
"685",126.440002,127.959999,125.599998,125.709999,4326200,62.041357
"686",124.639999,125.349998,122.230003,123,5727000,60.703897
"687",122.779999,122.879997,121,121.790001,3752200,60.106729
"688",123.080002,125.050003,122.419998,124.699997,3915600,61.542893
"689",125.18,125.949997,124.32,125.599998,4088800,61.987068
"690",125.75,128.229996,125.370003,127.559998,2442600,62.954382
"691",128.190002,128.919998,127.489998,128.679993,2449200,63.507131
"692",128.330002,129.369995,127.410004,128.660004,2084000,63.497266
"693",129.5,130.399994,129.119995,130.080002,2585600,64.198074
"694",130,131.179993,129.490005,129.880005,2634800,64.09937
"695",130.490005,132.009995,130.270004,131.830002,2847800,65.061747
"696",131.470001,132.839996,130.410004,130.419998,4972200,64.365871
"697",128.910004,130.419998,128.320007,128.929993,2773400,63.630513
"698",129.100006,129.520004,126.709999,127.269997,2513600,62.811259
"699",128.360001,128.800003,126.169998,126.239998,3784800,62.302926
"700",125.269997,126.849998,123.849998,123.900002,4030200,61.148073
"701",124.440002,125.07,123.620003,124.980003,2790400,61.681084
"702",125.769997,126.800003,123.029999,123.919998,3087000,61.157942
"703",124.480003,129.389999,124.370003,128.899994,4865200,63.615707
"704",127.889999,128.669998,126.190002,128.199997,3713800,63.27024
"705",128.169998,129.149994,127.43,128.070007,3039400,63.206086
"706",128.070007,128.830002,126.629997,128.509995,2257400,63.423232
"707",128.800003,130.050003,128.039993,129.050003,3105200,63.689741
"708",129.050003,129.419998,125.75,126.099998,3335400,62.233832
"709",126.07,126.07,122.629997,122.860001,4745800,60.634804
"710",121,124.870003,120.760002,124.75,4256400,61.567571
"711",124.889999,127.220001,124.529999,126.889999,2525200,62.62372
"712",127.07,129.210007,126.199997,128.25,2289400,63.294917
"713",128.559998,130.199997,128.479996,128.619995,2723000,63.47752
"714",129.009995,129.660004,127.720001,128.259995,2956800,63.29985
"715",127.300003,127.800003,124.010002,124.129997,4050600,61.35151
"716",122.360001,122.370003,116.129997,116.190002,5775400,57.427151
"717",117.830002,119.639999,115.82,119.150002,4537000,58.890137
"718",117.410004,117.860001,113.459999,114.82,6131200,56.750024
"719",115.389999,115.959999,112.050003,115.309998,6903800,56.992207
"720",116.160004,116.279999,112.93,113.440002,4954200,56.067958
"721",113.949997,116.82,113.510002,116.400002,4329000,57.530944
"722",116.900002,117.379997,115.269997,117,4435600,57.827494
"723",117.040001,120.449997,117,119.93,3838000,59.275653
"724",120.160004,123.529999,119.360001,121.860001,4523000,60.229559
"725",121.699997,121.910004,119,119.120003,4676200,58.87531
"726",120.5,122.720001,119.879997,121.93,2326800,60.264157
"727",121.800003,122.739998,120.589996,121.160004,3567800,59.883585
"728",120.389999,120.389999,117.760002,118.830002,3678600,58.731976
"729",119.25,120.260002,118,119.669998,3080400,59.147146
"730",121.400002,124.199997,121.400002,123.980003,4339000,61.277375
"731",124.599998,126.730003,123.260002,126.040001,5604800,62.295533
"732",133.789993,137.960007,132.960007,135.690002,10445000,67.065067
"733",136.039993,138.779999,135.919998,137.899994,6426200,68.15736
"734",138.809998,139,135.529999,136.080002,5611400,67.257825
"735",135.490005,135.490005,131.699997,133.580002,4896400,66.022195
"736",132.820007,134.539993,132.309998,133.660004,3208800,66.061736
"737",134,136.970001,133.820007,136.669998,3957800,67.549432
"738",136.490005,137.639999,134.050003,134.690002,4216200,66.570815
"739",134.509995,134.919998,132.740005,133.220001,3958800,65.844263
"740",133.800003,135.889999,133.509995,135.25,5239200,66.847595
"741",135.369995,137.149994,134.869995,135.610001,4074400,67.025526
"742",135.779999,136.270004,134.050003,134.279999,2490200,66.368169
"743",134.160004,135.529999,129.820007,130.929993,4040000,64.712422
"744",128.970001,131.639999,128.229996,131.399994,3610600,64.944721
"745",129.729996,130.949997,128.630005,130.830002,2411000,64.663001
"746",132.460007,133.25,129.509995,131.119995,3505800,64.806331
"747",130.339996,133.419998,130.119995,132.830002,3149600,65.651505
"748",132.330002,133.940002,130.899994,132.690002,2435200,65.58231
"749",131.729996,132.600006,129.089996,129.100006,3438200,63.807947
"750",130.149994,132.130005,129.720001,131.75,2904200,65.117712
"751",131.470001,132.639999,130.330002,132.160004,3553000,65.320357
"752",131.660004,131.970001,128.490005,128.520004,2890800,63.52128
"753",128.910004,130.649994,127.519997,130.639999,2992600,64.569092
"754",131.100006,133.649994,130.199997,132.679993,2235600,65.577363
"755",132.330002,132.600006,131.149994,131.619995,1533600,65.053457
"756",129.289993,130.320007,128.240005,129.110001,2794600,63.812887
"757",131.259995,131.770004,129.479996,129.630005,2709400,64.0699
"758",129.679993,133.5,129.350006,133.330002,3135000,65.898631
"759",133.610001,133.610001,131.130005,131.740005,2687800,65.112772
"760",133.199997,134.339996,132.160004,133.330002,2379400,65.898631
"761",133.5,135.960007,133.139999,135.020004,2800400,66.733919
"762",134.970001,137.990005,134.779999,135.589996,3409000,67.015638
"763",133.720001,133.889999,129.789993,130.990005,4397600,64.742083
"764",132.240005,132.399994,128.570007,130.399994,4786600,64.450469
"765",128.889999,129.460007,124.529999,127.410004,3962200,62.97266
"766",129.020004,131.100006,128.220001,130.149994,3441000,64.326906
"767",131.190002,132.550003,129.529999,131.850006,2504600,65.167141
"768",133.160004,134.080002,130.720001,131.009995,3610800,64.751963
"769",130.429993,132.990005,130.020004,131.679993,3424400,65.083111
"770",133.789993,136.429993,133.240005,135.309998,3230400,66.877249
"771",135.240005,139.270004,135.240005,137.880005,4339200,68.14748
"772",138,138.5,136.809998,138.179993,1707400,68.29575
"773",139.059998,140.639999,138.630005,140.399994,2281000,69.39299
"774",141.5,142.529999,139.009995,139.759995,3429400,69.076669
"775",140.949997,142.470001,140.389999,142.220001,3547400,70.292532
"776",142.690002,143.679993,141.630005,142.270004,3534000,70.317246
"777",144,146.789993,142.889999,143.550003,5601400,70.949888
"778",143.100006,144.770004,141.910004,144.710007,3772200,71.523223
"779",144.630005,145.619995,142.589996,143.539993,3459200,71.037231
"780",143.779999,145.539993,143.75,144.559998,3735400,71.542026
"781",145.050003,146.419998,144.649994,145.830002,2746000,72.170545
"782",146.419998,148.270004,146.220001,147,3070600,72.749571
"783",147.809998,148.699997,146.509995,148.669998,2742200,73.576045
"784",148.630005,150.050003,147.539993,149.490005,3240800,73.981862
"785",149.619995,149.979996,148.009995,148.639999,3264600,73.561199
"786",149.089996,149.139999,143.160004,144.070007,6075800,71.299532
"787",144.070007,147.399994,144,147.369995,3925000,72.93268
"788",146.240005,146.720001,144.240005,145.740005,2974400,72.126006
"789",145.320007,145.520004,143.869995,144.710007,1627400,71.616265
"790",145.050003,145.779999,141.550003,144.100006,3268400,71.314378
"791",144.619995,148.169998,144.619995,145.490005,3469400,72.002282
"792",147.570007,152.910004,147.570007,152.070007,3991600,75.258693
"793",150.759995,153.210007,150.25,153.029999,2813200,75.733788
"794",152.940002,155.039993,152.149994,154.179993,3574000,76.302914
"795",154.100006,154.910004,151.309998,153.220001,4948800,75.827819
"796",160.309998,161.470001,155.289993,156.220001,9410200,77.312504
"797",157.860001,160.25,156.309998,158.580002,4722600,78.480457
"798",158.660004,159.970001,158,158.839996,3664400,78.609126
"799",158.160004,160.449997,157.460007,158.759995,4004400,78.569534
"800",159,159.149994,156.759995,158.240005,2282600,78.312194
"801",158.119995,158.899994,156.119995,156.399994,2548200,77.401581
"802",155.539993,157.779999,154.289993,156.589996,2551400,77.495613
"803",155.529999,156.889999,154.309998,155.490005,2502000,76.951233
"804",155.520004,156.119995,152.539993,152.690002,2752800,75.565525
"805",152.699997,155.889999,152.160004,154.619995,2395400,76.520669
"806",154.369995,154.369995,151.389999,151.839996,2361200,75.144861
"807",152.729996,155.360001,152.449997,154.399994,1463000,76.411791
"808",154.399994,156.789993,153.539993,156.619995,2084200,77.510459
"809",157.259995,159.610001,156.830002,157.110001,2204200,77.75296
"810",156.160004,158.559998,156,156.289993,2267600,77.347143
"811",156.940002,161.320007,156.830002,159.460007,3517800,78.915967
"812",158.729996,159.300003,156.679993,157.089996,1990800,77.74306
"813",157.5,158.320007,156.289993,157.050003,2166200,77.723268
"814",159.460007,160.490005,157.050003,158.429993,2207600,78.406218
"815",157.490005,161.009995,157.490005,160.529999,2611800,79.4455
"816",161.220001,162.619995,160.949997,161.429993,1967800,79.890903
"817",162.570007,164.330002,160.580002,161.720001,3772400,80.034427
"818",163.100006,164,162.169998,163.649994,3747000,80.98957
"819",163.5,164.720001,160.929993,163.5,3420600,80.915339
"820",163.449997,167.369995,162.839996,167.149994,3613400,82.721703
"821",167.539993,168.770004,167,167.990005,3130200,83.137421
"822",167.75,168.139999,166.100006,166.440002,2089400,82.370332
"823",167.539993,167.990005,165.080002,165.800003,2466600,82.053599
"824",166.509995,168.360001,165.789993,167.770004,2069800,83.028543
"825",167.259995,172.360001,167.199997,171.789993,2870200,85.018016
"826",172.100006,172.809998,169.350006,170.729996,2122000,84.493428
"827",170.5,171.529999,168.529999,168.869995,3677400,83.572923
"828",168.570007,169.710007,168.110001,168.860001,2652000,83.567977
"829",169.410004,173.919998,168.619995,172.089996,4233600,85.166486
"830",172.089996,173.289993,170.729996,171.380005,3507400,84.815115
"831",171.720001,172.169998,169.820007,172.089996,1933600,85.166486
"832",171.229996,171.660004,169.800003,170.729996,1660600,84.493428
"833",167.559998,170.339996,167.119995,169.279999,2593800,83.775832
"834",168.610001,172.830002,168.550003,172.149994,2809200,85.196178
"835",171.869995,172.360001,169.179993,172.360001,2717600,85.30011
"836",171.949997,172.229996,169.990005,171.800003,2515400,85.02297
"837",171.919998,174.860001,170.539993,174.589996,3206400,86.403723
"838",172.210007,174.210007,171.25,172.830002,3423800,85.532711
"839",172.339996,174.649994,170.410004,171.460007,3545000,84.854707
"840",172.330002,173.559998,169.600006,171.520004,3839600,84.8844
"841",173.389999,174.940002,172.940002,174.860001,3032600,86.537347
"842",174.320007,180.949997,174.25,178.990005,3899800,88.581266
"843",177.360001,181.080002,176.330002,181.059998,2461200,89.605695
"844",180.25,181.979996,179,179.970001,3037000,89.158836
"845",182.479996,185.869995,181.470001,182.289993,4577200,90.308181
"846",181.679993,182.399994,179.300003,181.389999,4643400,89.862316
"847",182.660004,184.169998,180.839996,183.789993,4302000,91.051296
"848",183,185.5,182.649994,184.320007,2405000,91.31387
"849",186.789993,188.300003,183.580002,185.149994,3930000,91.725053
"850",183.119995,183.119995,176.509995,178.440002,5441400,88.40086
"851",178.059998,182.570007,176.110001,181.429993,4082000,89.882129
"852",182.350006,184.089996,181.289993,183.440002,2583800,90.877907
"853",183.830002,183.899994,181.880005,182.419998,1835000,90.372587
"854",182.869995,185.770004,182.309998,185.080002,2861800,91.690378
"855",186.320007,186.850006,178.889999,180.330002,3915000,89.337183
"856",179.979996,180.910004,176.710007,178.399994,3954400,88.381039
"857",178.610001,180.029999,175.399994,178.979996,3633200,88.668377
"858",180.470001,183.600006,179.729996,183.460007,2737200,90.887817
"859",183.339996,183.339996,179.520004,179.729996,3686200,89.039935
"860",181.330002,182.899994,175.940002,176.639999,4666800,87.509121
"861",179.309998,180.240005,165.050003,171.580002,9039000,85.002351
"862",171.119995,173.259995,170.559998,170.960007,5577800,84.695199
"863",171.210007,171.639999,169.630005,171.449997,3293200,84.937945
"864",170.699997,171.080002,165.800003,167.100006,4579200,82.782919
"865",166.440002,169.860001,165.789993,169.460007,4713200,83.952085
"866",169.490005,170.080002,167.949997,169.669998,3690600,84.056117
"867",170.279999,172.139999,167.880005,171.380005,4322400,84.90327
"868",171.5,172.199997,167.470001,168.520004,3032000,83.486399
"869",168.119995,169.470001,165.649994,167.889999,3115400,83.174289
"870",168.850006,169.759995,166.210007,166.919998,3010600,82.693741
"871",168.119995,169.960007,167.800003,169.309998,3079200,83.877769
"872",170.199997,170.410004,167.350006,170.149994,2536600,84.293911
"873",169.320007,169.369995,165.669998,169.190002,3777800,83.818323
"874",169.350006,171.479996,167.699997,169.199997,3180400,83.823274
"875",168.929993,169.690002,165.520004,166.429993,3360200,82.450988
"876",166.5,167.110001,164.190002,165,2248400,81.742556
"877",166,166.550003,163.130005,165,3034400,81.742556
"878",164.449997,166.729996,161.820007,165.479996,4163800,81.98035
"879",165.600006,169.110001,165.5,167.130005,3751400,82.79778
"880",165.339996,167.740005,164.160004,165.380005,4473800,81.930814
"881",166.949997,167.100006,159.889999,160.039993,7343200,79.285322
"882",160.919998,161.25,156.309998,158.139999,8547400,78.344047
"883",158.429993,161.940002,158.139999,159.309998,4554400,78.923675
"884",158.850006,159.139999,156.009995,156.259995,4240000,77.412675
"885",156.429993,159.320007,156.240005,158.360001,3813000,78.453037
"886",157.669998,159.350006,156.490005,159.020004,4488600,78.78001
"887",159.339996,161.970001,159.339996,159.740005,4120200,79.136705
"888",160.520004,160.520004,157.509995,159.649994,3471800,79.092112
"889",159.639999,162.380005,158.330002,162,5965400,80.256328
"890",161.669998,165.910004,161.179993,165.330002,5073600,81.906042
"891",166.119995,169.320007,165.449997,168.520004,6265800,83.486399
"892",169.259995,169.839996,166.830002,167.619995,3028000,83.040526
"893",167.820007,168.270004,166.229996,168.259995,978200,83.357588
"894",168.460007,169.539993,167.669998,168.020004,1772200,83.238694
"895",168.139999,169.479996,167.679993,169.160004,1685200,83.803461
"896",168.949997,170.5,166.199997,167.350006,2811400,82.906771
"897",167.339996,168.850006,166.470001,167.839996,2109800,83.149517
"898",166.570007,167.960007,164.059998,165.020004,2943400,81.752466
"899",165.75,166.649994,163.809998,164.559998,2693800,81.524574
"900",164.770004,165.330002,162.339996,164.020004,3649200,81.257057
"901",165.070007,166.910004,163.710007,166.850006,3286800,82.659066
"902",166.020004,167.830002,165.050003,166.779999,2857800,82.624384
"903",167.410004,168.889999,165.479996,167,3539400,82.733375
"904",167.460007,168.100006,165.990005,166.809998,2949800,82.639246
"905",167.410004,168.270004,162.970001,163.460007,2672600,80.979629
"906",164.059998,168.729996,163.630005,168.600006,3221800,83.526033
"907",169.460007,173.279999,169.399994,170.360001,4088800,84.492167
"908",170.100006,171.169998,168.699997,170.100006,3342400,84.363219
"909",170.960007,171.880005,168.919998,168.960007,3325800,83.797822
"910",169.160004,170.550003,168.139999,169.229996,3195000,83.931727
"911",170.199997,172.300003,169.25,171.720001,3588600,85.166676
"912",169.779999,171.740005,168.229996,169.169998,4482800,83.90197
"913",168.050003,169.039993,165.119995,165.529999,5645400,82.096667
"914",165.169998,165.490005,161.259995,162.100006,3806000,80.39552
"915",163.380005,167.5,162.289993,167.220001,3292600,82.934845
"916",165.919998,166.160004,163.539993,164.649994,3280400,81.660218
"917",165.100006,167.5,164.649994,166.130005,2263000,82.394248
"918",164.669998,167.600006,163.179993,165.240005,2639600,81.952841
"919",164.610001,166.860001,161.5,161.740005,4528800,80.216973
"920",162.669998,168.990005,162.5,168.580002,6576800,83.609354
"921",168.100006,169.699997,166.770004,167.490005,4293000,83.068757
"922",167.690002,173.789993,167.690002,173.25,5142200,85.925498
"923",174.770004,176.880005,173.139999,176.5,4170600,87.537376
"924",176.759995,176.759995,173.070007,174.199997,3538200,86.396661
"925",174.300003,176.210007,173.559998,174.729996,3298800,86.65952
"926",175.75,176.899994,174.490005,175.110001,2585000,86.847989
"927",173.580002,176.75,172.600006,175.470001,3432600,87.026535
"928",175.710007,177.25,174.889999,176.960007,2337600,87.765522
"929",178.119995,180.259995,178.009995,179.919998,3654600,89.233567
"930",179.050003,181.610001,178.399994,178.860001,3835000,88.707848
"931",179.039993,182.059998,178.149994,180.029999,4512000,89.288123
"932",180.470001,180.970001,177.940002,178,5410800,88.28132
"933",178.429993,181.619995,177.029999,180.399994,7053200,89.471627
"934",182.850006,185.130005,179.25,184,7461200,91.257095
"935",183.610001,188.410004,182.880005,186.440002,7214400,92.467244
"936",186.410004,187.649994,184.490005,187.470001,3779600,92.978085
"937",187.720001,191.080002,187.110001,189.419998,5076400,93.94521
"938",189.050003,192,188.619995,189.289993,5608400,93.880733
"939",190.470001,192.919998,190.330002,191.559998,4265400,95.00657
"940",192.039993,193.220001,190.050003,190.490005,3900800,94.475894
"941",190.720001,192.210007,189.330002,191.059998,3450600,94.758588
"942",191.520004,191.949997,188.199997,189.919998,3917200,94.193192
"943",189.919998,189.919998,187.119995,189.050003,2759200,93.761707
"944",189.839996,190.169998,185.320007,185.600006,4103200,92.050638
"945",183.600006,186.429993,181.660004,185.130005,4087600,91.817535
"946",186.25,186.649994,181.770004,182.910004,3763800,90.716497
"947",182.970001,186.210007,182.899994,185.970001,3178400,92.234141
"948",186.600006,188,186,187.229996,2722400,92.859051
"949",187.399994,190.520004,187.179993,189.160004,3166000,93.816263
"950",189.350006,189.440002,186.029999,187.529999,3165000,93.007842
"951",187.619995,190.559998,186.070007,190.330002,4022400,94.396538
"952",191.910004,193.160004,189.380005,191.639999,5331800,95.046248
"953",192.25,192.970001,188.460007,189.600006,3461600,94.034487
"954",191.179993,192.970001,190.899994,191.570007,3816400,95.011534
"955",192.550003,195.320007,191.899994,192.119995,4117200,95.284307
"956",192.289993,195.399994,192.020004,193.460007,3528200,95.948903
"957",194.470001,198.820007,194.110001,197.160004,4051000,97.783963
"958",198.470001,199.5,195.050003,196.169998,8285600,97.292957
"959",99.379997,100.360001,98.260002,98.980003,3422900,98.180734
"960",98.269997,99.449997,98.019997,99.110001,2858000,98.309682
"961",99.330002,101.5,99.260002,100.650002,5219000,99.837247
"962",102.669998,103.300003,98.949997,99.769997,4028600,98.964348
"963",99.720001,99.980003,97.449997,97.93,3146300,97.13921
"964",97.779999,99.580002,97.540001,98.709999,3293600,97.91291
"965",98.940002,99.169998,97.989998,98.949997,3826700,98.15097
"966",98.629997,99.989998,97.559998,98.110001,4706000,97.317757
"967",97.669998,99.440002,97.57,98.629997,4581500,97.833554
"968",99.519997,100.099998,98.720001,99.959999,3427800,99.278633
"969",99.629997,101.68,99.519997,101.110001,4695400,100.420796
"970",101.480003,102.199997,100.43,101.010002,3650900,100.321479
"971",100.839996,102.839996,100.839996,102.449997,3253200,101.751658
"972",102.980003,103.580002,101.839996,103.529999,2404700,102.824298
"973",103.269997,103.269997,102.110001,102.339996,3332800,101.642407
"974",102.529999,105.18,102.529999,105.080002,3445700,104.363736
"975",105.5,105.5,103.419998,103.480003,3716000,102.774644
"976",103.25,103.300003,98.519997,99.040001,7168000,98.364906
"977",99.940002,100,96.529999,98.059998,5112100,97.391583
"978",98.879997,101.230003,98.830002,99.620003,4089100,98.940954
"979",99.07,99.199997,97.010002,98,6297700,97.331994
"980",98.330002,98.769997,96.809998,97.120003,4240100,96.457995
"981",97.300003,98.25,96.82,97.059998,3710900,96.398399
"982",96.040001,99.709999,96.010002,99.25,4757400,98.573474
"983",102.800003,106.5,101.839996,103.629997,8515800,102.923615
"984",104.610001,105.449997,102.639999,104.790001,5705400,104.075712
"985",104.029999,104.559998,101.620003,101.730003,3264300,101.036572
"986",102,102.300003,100.639999,102.279999,3709500,101.582819
"987",102.57,103.730003,101.980003,103.639999,3351800,102.933549
"988",104.580002,105.5,104.07,105.169998,3426300,104.453119
"989",105.389999,105.489998,103.860001,103.900002,2415000,103.191779
"990",103.970001,103.980003,101.550003,102.739998,2608100,102.039682
"991",102.57,102.879997,101.339996,102.5,2846300,101.80132
"992",102.5,103.360001,101.959999,102.300003,1832600,101.602687
"993",102.220001,102.949997,101.470001,101.889999,1937500,101.195478
"994",102.699997,104.360001,102.129997,104.160004,1777500,103.450009
"995",104.290001,105.169998,103.529999,103.68,2457100,102.973277
"996",103.889999,105.150002,103.440002,103.970001,2535000,103.261301
"997",104.440002,104.970001,103.75,104.730003,2072500,104.016123
"998",104.860001,105.629997,104.400002,105.190002,2724800,104.472987
"999",105.419998,106.709999,105,106.669998,2565500,105.942894
"1000",106.269997,106.360001,105.25,105.800003,2293300,105.078829
"1001",105.949997,106,104.949997,105.379997,1712400,104.661686
"1002",105.449997,106.660004,105.269997,106.660004,1974800,105.932968
"1003",106.480003,106.730003,105.559998,106.370003,1695600,105.644944
"1004",106.349998,107.910004,105.82,107.900002,2212100,107.164513
"1005",108.139999,109.559998,108.040001,109.32,2151400,108.574832
"1006",110.089996,110.75,109,109.510002,2366300,108.76354
"1007",109.389999,109.75,108.410004,108.690002,2174200,107.949129
"1008",108.25,110.910004,108.139999,110.699997,2683700,109.945423
"1009",111.459999,113.019997,111.220001,111.629997,3799500,110.869084
"1010",111.769997,114.059998,110.529999,114.019997,3126400,113.242792
"1011",115.209999,115.209999,113.019997,114.029999,4075200,113.252726
"1012",113.949997,113.949997,111.260002,112.389999,5247000,111.623906
"1013",112.580002,113.839996,111.739998,113.540001,2912400,112.766068
"1014",113.139999,115.849998,112.519997,115.800003,3865900,115.010665
"1015",117.050003,118.389999,116.150002,117.980003,5556100,117.175806
"1016",118.519997,118.889999,116.949997,117.410004,3328800,116.609692
"1017",117.18,117.449997,112.239998,113.019997,4574300,112.249609
"1018",113.32,116.25,113.32,116.019997,3456700,115.229159
"1019",115.68,115.82,114.07,115.419998,2355100,114.633251
"1020",115.230003,115.93,114.709999,115.839996,2801600,115.050386
"1021",116.080002,117.190002,115.849998,116.860001,2342000,116.063438
"1022",117.440002,117.940002,116.019997,116.550003,2793600,115.755553
"1023",116.860001,117.589996,115.540001,116.230003,2649800,115.437735
"1024",116.269997,117.019997,115.110001,116.75,1677900,115.954187
"1025",116.400002,116.5,115.419998,115.730003,1574500,114.941143
"1026",115.370003,116.550003,115.129997,115.980003,2511100,115.189439
"1027",116.099998,116.629997,115.190002,116.559998,1938800,115.765479
"1028",114.879997,115.879997,113.760002,114.959999,2212700,114.176387
"1029",115.739998,115.739998,113.389999,113.650002,2482100,112.875319
"1030",114.650002,116.050003,114.309998,115.690002,2956100,114.901415
"1031",114.910004,115.620003,112.639999,113.440002,3367700,112.788622
"1032",114.620003,117.279999,114.169998,117.099998,3181000,116.427602
"1033",117.480003,118.809998,115.349998,115.550003,2286700,114.886506
"1034",115.360001,116.389999,114.339996,116.040001,2605200,115.373691
"1035",115.860001,116.43,115.120003,116.150002,1595000,115.48306
"1036",116.75,117.620003,115.800003,116.550003,2600600,115.880764
"1037",116.699997,116.699997,115.300003,115.949997,3621600,115.284204
"1038",116.480003,116.93,115.699997,116.199997,2864400,115.532768
"1039",115.580002,115.860001,114.400002,114.82,1981100,114.160695
"1040",114.82,115.019997,113,113.389999,2993500,112.738906
"1041",113.269997,115.330002,113.190002,114.239998,2502800,113.584023
"1042",114.830002,115.440002,113.360001,113.629997,1778300,112.977526
"1043",112.839996,113.089996,109.370003,109.440002,4162500,108.81159
"1044",108.650002,109.809998,107.160004,108.040001,3966400,107.419627
"1045",108.739998,112.120003,108.080002,111.809998,3002600,111.167976
"1046",111.809998,111.809998,107.510002,108.629997,4848700,108.006236
"1047",107.029999,108.510002,105.629997,106.639999,5007700,106.027665
"1048",107.629997,107.629997,105.400002,106.059998,2977200,105.450993
"1049",106.07,107.900002,106.07,107.779999,2354100,107.161118
"1050",108.720001,109,107.919998,108.300003,2760600,107.678137
"1051",107.889999,108.489998,106.339996,106.690002,3265800,106.077381
"1052",107.660004,107.879997,106.220001,106.349998,2337400,105.739329
"1053",107.220001,107.230003,103.57,103.93,3490700,103.333227
"1054",103.970001,106.419998,103.669998,106.089996,4557700,105.48082
"1055",106.650002,106.910004,104.660004,105.43,3275500,104.824614
"1056",106.099998,107.349998,105.660004,107.029999,3145300,106.415425
"1057",107.089996,107.449997,106.099998,107.279999,2185900,106.663989
"1058",107.5,107.519997,106.019997,107.190002,2138800,106.57451
"1059",106.589996,106.839996,105.610001,106.269997,2075400,105.659787
"1060",106.93,108.25,106.599998,107.940002,1932600,107.320203
"1061",108.860001,110.470001,108.5,109.400002,3283200,108.771819
"1062",109.43,109.449997,108.07,108.610001,1996700,107.986354
"1063",108.32,109.080002,108.099998,108.389999,1756800,107.767616
"1064",108.800003,109.980003,108.370003,109.879997,1802700,109.249058
"1065",109.57,109.849998,107.080002,107.709999,2755100,107.09152
"1066",108.849998,109.080002,107.459999,107.739998,1479100,107.121347
"1067",107.760002,107.989998,103.970001,104.610001,3937200,104.009322
"1068",104.349998,105.290001,103.050003,105.18,3235500,104.576049
"1069",104.07,104.07,100.75,101.410004,5549200,100.8277
"1070",101.629997,102.489998,100.82,101.309998,3636000,100.728268
"1071",100.93,102.139999,99.330002,102.010002,3713700,101.424253
"1072",100.93,103.129997,100.5,103.059998,4596100,102.46822
"1073",102.5,102.57,101.029999,101.32,3699800,100.738213
"1074",100.800003,102.410004,100.120003,101.910004,3055400,101.324829
"1075",102.330002,105.900002,101.75,105.220001,4116100,104.61582
"1076",105.650002,106.089996,104.519997,105.190002,3689600,104.585994
"1077",105.82,105.989998,104.209999,104.980003,3003200,104.377201
"1078",105.239998,105.900002,103.959999,104.370003,6346200,103.770703
"1079",103.82,103.860001,100.57,101.739998,4437000,101.155799
"1080",101.550003,101.629997,100.449997,100.839996,5577300,100.260966
"1081",100.940002,102.870003,99.550003,102.139999,4584400,101.553504
"1082",102.639999,102.699997,100.139999,100.360001,3588900,99.783726
"1083",100.370003,102.410004,100.209999,101.879997,3327500,101.294995
"1084",100.800003,102.059998,100.099998,101.870003,4300400,101.285058
"1085",101.849998,101.849998,97.449997,99.019997,6422700,98.451417
"1086",99.209999,99.730003,96.150002,96.849998,5856700,96.293879
"1087",95.760002,97.639999,94.269997,97.059998,5381500,96.502672
"1088",97.720001,97.720001,95.57,96.57,4433900,96.015488
"1089",96.839996,97,94.360001,95.089996,5114400,94.543983
"1090",95.019997,96.019997,93.57,93.610001,5515800,93.072485
"1091",93.309998,94.690002,90.800003,94.559998,7723600,94.017027
"1092",93.639999,93.730003,90.879997,91.959999,9684400,91.431958
"1093",91.07,91.949997,88.610001,89.830002,9915400,89.314191
"1094",89.25,90.300003,83.580002,83.760002,9446700,83.279046
"1095",85.400002,86.879997,83.5,83.839996,12228000,83.358581
"1096",82.029999,88.529999,81.07,88.169998,11107300,87.839731
"1097",85.190002,92.519997,85.190002,91.269997,10111100,90.928118
"1098",94.199997,95.550003,90.260002,91.220001,8665500,90.87831
"1099",91.629997,93.129997,90.769997,92.760002,4420600,92.412542
"1100",94.349998,96.150002,94.269997,96.029999,6298800,95.67029
"1101",96.760002,97,91.980003,92.07,7672400,91.725124
"1102",94.239998,94.839996,92.400002,93.400002,9219300,93.050144
"1103",92.949997,93.019997,90.199997,92.099998,5417400,91.755011
"1104",90.279999,90.279999,86.949997,88.43,7433800,88.09876
"1105",88.809998,91.910004,87.550003,91.5,6123200,91.15726
"1106",94.239998,95.32,91.760002,93.129997,5926100,92.781151
"1107",92.57,93.290001,91.029999,92.220001,3743400,91.874564
"1108",91.949997,95.099998,90.739998,95.050003,5495200,94.693965
"1109",95.050003,96.809998,92.889999,93.32,7006200,92.970442
"1110",89.669998,90.989998,89,90.279999,8208000,89.941828
"1111",95.5,97.470001,93.559998,96.099998,11401900,95.740028
"1112",95.190002,99.18,95.110001,98.970001,8202200,98.59928
"1113",99.720001,101.580002,99.269997,99.550003,7009200,99.177109
"1114",101.010002,102.25,97.989998,98.5,5947800,98.131039
"1115",98.5,99.07,97.110001,98.75,4274300,98.380103
"1116",98.68,99.349998,97.349998,97.559998,3433600,97.194558
"1117",96.5,97.440002,94.470001,95.849998,5859100,95.490964
"1118",96.32,98.360001,96.199997,98.160004,3992500,97.792316
"1119",97.010002,97.379997,95.730003,96.349998,4349400,95.989091
"1120",96.32,98.260002,96.089996,97.669998,3917200,97.304146
"1121",98.75,98.800003,96.779999,98.330002,3830800,97.961678
"1122",98.449997,100.290001,98.339996,99.440002,4623400,99.067521
"1123",102.489998,103.040001,101.290001,101.739998,6378000,101.358901
"1124",101.18,101.739998,99.25,99.559998,4110600,99.187066
"1125",100.279999,100.32,96.720001,96.739998,5591700,96.37763
"1126",96.620003,96.629997,93.860001,94.07,5346100,93.717633
"1127",87.160004,88.43,85.190002,86.720001,9472100,86.395166
"1128",85.519997,87.580002,83.660004,87.239998,10063500,86.913215
"1129",87.379997,91.330002,86.870003,90.300003,10146400,89.961758
"1130",91.709999,93.599998,90.800003,91.800003,6237200,91.456139
"1131",90.790001,93,89.75,93,5108100,92.651641
"1132",91.910004,92.050003,89.779999,90.75,7572500,90.410069
"1133",89.080002,89.5,87.510002,88.190002,8672200,87.859661
"1134",87,91.120003,86.769997,89.150002,8197500,88.816064
"1135",86.379997,87.260002,85.540001,86.790001,8821700,86.464903
"1136",87.190002,89.760002,86.129997,86.860001,5808100,86.534641
"1137",85.309998,88.419998,85.099998,86.370003,6606200,86.046478
"1138",87.089996,88.160004,84.949997,85.339996,6867000,85.02033
"1139",83.860001,89.389999,83.779999,85.470001,8303700,85.149848
"1140",87.610001,92.209999,86.110001,91.139999,10269500,90.798608
"1141",93.830002,94.389999,88.900002,92.449997,8888600,92.103698
"1142",93.629997,95.089996,92.449997,95.019997,7853400,94.664071
"1143",94.209999,95.620003,93.68,95.059998,6746600,94.703922
"1144",95.739998,97.269997,94.540001,96.410004,4243900,96.048872
"1145",95.610001,95.639999,92.510002,94.050003,3012800,93.697711
"1146",94.900002,95.199997,93.330002,93.82,2210600,93.468569
"1147",94.550003,95.209999,93.449997,94.330002,3397000,93.976661
"1148",93.5,94.330002,91.889999,92.699997,3379400,92.352762
"1149",91.970001,93.550003,90.75,92.07,3329200,91.725124
"1150",91.010002,92.989998,90.360001,92.239998,3462300,91.894486
"1151",89.959999,90.779999,86.019997,86.68,6173600,86.355315
"1152",85.839996,86.599998,82.760002,84.209999,8142000,83.894566
"1153",85.18,85.730003,82.720001,83.68,5950300,83.366552
"1154",84.720001,87.650002,84.07,86.879997,5836500,86.554563
"1155",87.019997,88.029999,86.010002,87.459999,4027200,87.132392
"1156",85.110001,85.349998,83.199997,84.510002,4810300,84.193445
"1157",84.970001,86.660004,84.050003,85.059998,5444200,84.74138
"1158",84.07,88.089996,83.669998,87.739998,6698200,87.58433
"1159",89.040001,89.5,86.449997,86.529999,4941700,86.376478
"1160",86.860001,90.540001,86.540001,90.309998,5483500,90.14977
"1161",89.089996,89.779999,87.519997,89.330002,5969500,89.171513
"1162",90.589996,91.400002,89.68,90.540001,4911900,90.379366
"1163",91.379997,91.379997,88.580002,90.360001,4471600,90.199685
"1164",90.07,92.519997,89.699997,90.790001,4433700,90.628922
"1165",91.230003,92.389999,90.150002,92.330002,3431100,92.166191
"1166",91.940002,94.410004,91.120003,93,5283000,92.835
"1167",92.330002,92.690002,87.760002,88.099998,5772900,87.943692
"1168",89.120003,89.410004,86.760002,88.910004,5188700,88.75226
"1169",88.160004,90.07,87.400002,89.029999,7469900,88.872042
"1170",90.989998,92.57,89.529999,92.519997,5615500,92.355848
"1171",94.720001,97.879997,94.650002,96.309998,8906600,96.139125
"1172",94.400002,97.529999,93.540001,95.190002,9869100,95.021117
"1173",95.709999,97.290001,95.160004,96.190002,5596600,96.019343
"1174",96.989998,97.209999,95.57,95.790001,5177000,95.620051
"1175",96.599998,97.230003,95.779999,95.949997,4249100,95.779763
"1176",96.650002,96.690002,93.839996,95.260002,4308300,95.090993
"1177",93.839996,94.089996,92.150002,93.199997,6332300,93.034642
"1178",94.959999,95.239998,93.470001,94.800003,3944500,94.63181
"1179",95.940002,96.970001,95.25,96.919998,4158500,96.748043
"1180",96.080002,96.669998,95.650002,96.489998,4234300,96.318806
"1181",96.489998,96.489998,94.5,95.309998,4534000,95.140899
"1182",86.68,94.739998,86.580002,93.800003,18682400,93.633584
"1183",93.089996,93.459999,90.07,91.080002,7937800,90.918408
"1184",90.059998,92.099998,89.25,91.93,5501300,91.766899
"1185",92.849998,93,91.260002,91.610001,4215000,91.447467
"1186",91.540001,93.25,91.290001,93.029999,5787800,92.864946
"1187",91.809998,92.25,89.610001,90.129997,5427100,89.970089
"1188",90.629997,90.709999,89.290001,89.720001,3837600,89.560821
"1189",89.720001,89.720001,87.080002,89.059998,5347800,88.901988
"1190",88.980003,91.110001,88.599998,90.370003,4381400,90.209669
"1191",90.199997,90.949997,88.550003,90.489998,3924800,90.329451
"1192",89.849998,90.519997,89.370003,89.589996,2688100,89.431046
"1193",88.919998,90,88.230003,88.57,4063600,88.41286
"1194",88.080002,89.25,87.639999,87.720001,3443600,87.564369
"1195",86.879997,88.57,86.150002,86.190002,4862400,86.037085
"1196",86.419998,87.370003,85.879997,86.550003,3973700,86.396447
"1197",87.050003,87.190002,85.620003,85.709999,3051700,85.557933
"1198",85.199997,85.660004,84.099998,85.389999,4415600,85.238501
"1199",85.110001,88.029999,85.059998,87.900002,4953800,87.74405
"1200",86.860001,87.970001,86.400002,86.800003,3798600,86.646003
"1201",86.080002,91.370003,86,90.660004,5386800,90.499155
"1202",89.400002,89.900002,88.360001,89.529999,3558700,89.371155
"1203",89.75,91.940002,89.43,90.68,5980000,90.519117
"1204",91.25,91.410004,89,89,3200700,88.842097
"1205",89.199997,89.940002,88.639999,88.839996,2681200,88.682377
"1206",89.68,90.650002,88.790001,89.959999,3664800,89.800393
"1207",91.489998,91.93,90.25,91.360001,4857100,91.19791
"1208",90.620003,91.120003,90.139999,90.559998,2539100,90.399327
"1209",91.639999,92.5,90.779999,92.139999,3478900,91.976525
"1210",91.129997,92.470001,90.830002,91.690002,3576000,91.527327
"1211",92.040001,93.349998,91.059998,91.220001,3813800,91.058159
"1212",90.300003,92.970001,89.230003,92.709999,4596300,92.545514
"1213",93.360001,95.400002,93.300003,94.870003,4770000,94.701685
"1214",95.199997,95.989998,94.120003,94.269997,5233200,94.102744
"1215",95.010002,95.580002,93.800003,94.040001,3274400,93.873156
"1216",94.110001,96.07,94.110001,95.709999,3408000,95.540191
"1217",95.870003,96.599998,95.25,96.589996,2570400,96.418627
"1218",96.75,96.900002,94.199997,94.690002,3111400,94.522004
"1219",95.660004,96.949997,95.339996,96.459999,3204400,96.459999
"1220",96.760002,98.339996,96.43,97.959999,5859500,97.959999
"1221",97.830002,98.949997,97.169998,98,4054400,98
"1222",97.040001,97.470001,96.389999,97.230003,3201200,97.230003
"1223",97.18,99.010002,97.18,97.739998,3130700,97.739998
"1224",97.830002,98.32,96.360001,96.589996,3238300,96.589996
"1225",96.940002,98.599998,96.300003,97.699997,2897800,97.699997
"1226",97.980003,99.25,97.839996,98.269997,2708400,98.269997
"1227",97.900002,97.970001,95.910004,96.720001,3139600,96.720001
"1228",97.550003,97.959999,96.559998,97.360001,2980500,97.360001
"1229",97.639999,98.809998,97.639999,98.459999,3736600,98.459999
"1230",98.220001,99.980003,97.790001,99.739998,3902600,99.739998
"1231",100,100.440002,98.480003,98.949997,3462000,98.949997
"1232",99.209999,101,97.610001,98.900002,3581900,98.900002
"1233",99.110001,101.360001,98.550003,99.389999,7301600,99.389999
"1234",98.699997,100.199997,94.529999,94.540001,11527700,94.540001
"1235",96.209999,96.860001,94.489998,95.080002,5135100,95.080002
"1236",96.099998,96.099998,92.419998,93.5,5170300,93.5
"1237",94.480003,94.5,92.559998,93.5,4913100,93.5
"1238",94.050003,94.239998,91.470001,91.610001,3917400,91.610001
"1239",91.760002,93.589996,91.709999,93.410004,3436300,93.410004
"1240",94.040001,94.07,90.980003,91.599998,3476100,91.599998
"1241",91.989998,92.080002,90.68,90.730003,3571200,90.730003
"1242",90.32,91.239998,89.25,90.470001,3267300,90.470001
"1243",90.559998,92.040001,89.900002,91.800003,2980200,91.800003
"1244",91.480003,91.610001,90.239998,90.260002,3556500,90.260002
"1245",90.599998,90.720001,89.760002,90.459999,3726900,90.459999
"1246",91.169998,91.830002,90.68,91.489998,3475100,91.489998
"1247",90.400002,91.389999,90.07,90.260002,2937200,90.260002
"1248",89.25,89.809998,88.550003,89.150002,3889700,89.150002
"1249",89.129997,89.940002,88.510002,89,3013900,89
"1250",88.550003,89.360001,88,89.150002,3782700,89.150002
"1251",89.419998,89.519997,88.260002,88.690002,3929600,88.690002
"1252",89.019997,89.120003,88.18,88.760002,2886500,88.760002
"1253",89.019997,90.349998,88.209999,89.769997,3534200,89.769997
"1254",89.550003,90.470001,88.970001,89.010002,2138300,89.010002
"1255",88.230003,89.129997,87.279999,87.379997,3710000,87.379997
"1256",87,90.639999,86.82,89.68,4328700,89.68
"1257",89.370003,89.959999,88.629997,89.110001,2733800,89.110001
"1258",90.019997,91.480003,89.089996,89.089996,2641300,89.089996
"1259",90.389999,90.709999,89.660004,90.410004,2843500,90.410004
