"","PPG.Open","PPG.High","PPG.Low","PPG.Close","PPG.Volume","PPG.Adjusted"
"1",62.880001,63.689999,62.66,63.32,4759200,28.705515
"2",62.779999,64.93,62.779999,64.779999,4592000,29.367391
"3",65.32,65.610001,64.019997,64.07,4095000,29.04552
"4",64.769997,65.599998,64.559998,65.580002,2147800,29.730065
"5",68.5,68.5,66.300003,66.540001,5963200,30.165271
"6",66.910004,66.940002,64.699997,66.160004,4454200,29.993003
"7",66.139999,67.290001,66.139999,66.660004,3486800,30.219673
"8",67.709999,68.279999,66.400002,66.809998,2292400,30.287672
"9",66.959999,67.269997,65.5,65.540001,2697400,29.711931
"10",65.589996,65.82,64.32,65.099998,2912000,29.51246
"11",64.610001,64.660004,63,63.110001,3025400,28.610314
"12",63.209999,63.700001,62.369999,62.950001,5231000,28.537779
"13",63.220001,63.490002,62.389999,62.889999,1937400,28.510578
"14",61.779999,61.779999,60.630001,61,3489200,27.653765
"15",60.990002,62.029999,60.23,60.41,2363800,27.386294
"16",60.209999,61.330002,59.689999,61.049999,4767200,27.676432
"17",61.209999,61.68,59.919998,60.57,2318000,27.458829
"18",61.25,61.869999,59.950001,60.560001,3102200,27.454296
"19",60.419998,63.07,60.310001,63.07,3177600,28.59218
"20",63.959999,64.599998,63.349998,64.25,3471600,29.127121
"21",64.129997,65.080002,63.939999,64.620003,2169400,29.294859
"22",64.43,64.470001,63.209999,63.779999,3350800,28.914051
"23",64.330002,65.599998,64.230003,65.330002,3411600,29.61673
"24",65.019997,65.660004,63.75,64.519997,4191400,29.249522
"25",64.510002,65.220001,63.599998,64.599998,2884800,29.28579
"26",64.32,64.480003,62.27,62.459999,3378600,28.315642
"27",62.82,63.139999,61.57,62.150002,3382400,28.175107
"28",61.470001,64.739998,61.470001,64.639999,5586000,29.303924
"29",65.139999,65.510002,64.230003,64.800003,4139000,29.37646
"30",65.440002,66.800003,65.010002,66,3025800,29.920467
"31",65.980003,67.720001,65.82,67.650002,2546200,30.66848
"32",67.849998,68.239998,67.330002,68.199997,3289800,30.917815
"33",68.830002,69.529999,68.5,68.800003,5074200,31.189822
"34",68.389999,69.18,68.389999,68.839996,2459800,31.207952
"35",69.18,69.760002,67.839996,68.82,2655600,31.198887
"36",67.900002,69.709999,67.849998,69.470001,2573200,31.493559
"37",70.110001,71.279999,69.989998,71.120003,2544600,32.241571
"38",70.419998,70.989998,69.879997,70.019997,2498200,31.742894
"39",70.279999,70.93,70.190002,70.879997,2105800,32.132767
"40",70.540001,70.849998,69.589996,70.25,3070600,31.847164
"41",69.379997,70.089996,68.529999,69.550003,2674000,31.778628
"42",69.809998,70.160004,69.389999,69.769997,1675200,31.879147
"43",69.230003,69.809998,68.629997,69.339996,2237400,31.682672
"44",67.93,67.93,66.720001,67.050003,2288600,30.636333
"45",65.809998,67.010002,65.760002,66.849998,1860400,30.544948
"46",66.5,66.970001,66.269997,66.309998,1444000,30.298212
"47",65.839996,66.779999,65.449997,66.510002,1467000,30.389597
"48",67.330002,68.25,67.279999,67.739998,2266600,30.951604
"49",67.720001,67.720001,66.699997,67.25,2233400,30.727716
"50",66.860001,66.989998,65.040001,65.589996,2400800,29.96923
"51",65,65.540001,64.720001,65.400002,2054600,29.882418
"52",65.82,66.169998,64.949997,65.010002,1228200,29.704221
"53",64.32,64.709999,64.029999,64.209999,2658400,29.338685
"54",63.919998,65.400002,63.119999,65.139999,3270000,29.763619
"55",65.529999,66.440002,65.169998,65.32,2476000,29.845864
"56",65.75,67.110001,64.970001,67.099998,2107600,30.659177
"57",66.720001,66.900002,65.470001,65.480003,2098400,29.918973
"58",65.239998,66.129997,64.93,65.830002,2737400,30.078893
"59",66.830002,68.400002,66.510002,68.160004,2327800,31.143512
"60",68.400002,68.93,68.239998,68.919998,1359600,31.490767
"61",69.459999,70.220001,69.459999,69.980003,2408200,31.975102
"62",69.459999,69.57,68.080002,68.279999,2920200,31.19834
"63",68.279999,69.470001,68.209999,69.099998,2336000,31.573013
"64",69.970001,69.970001,69.18,69.309998,1437800,31.668965
"65",69.550003,71,69.519997,70.769997,3419800,32.336064
"66",71.489998,71.910004,71.400002,71.639999,3012000,32.733584
"67",71.220001,71.610001,70.949997,71.339996,2658200,32.596507
"68",71.110001,71.889999,70.290001,71.629997,2342400,32.729014
"69",71.269997,72.309998,71.110001,72.230003,2992000,33.003167
"70",72.290001,72.730003,71.68,72.050003,2492000,32.920922
"71",72.379997,72.93,72,72.660004,2693600,33.199642
"72",72.43,72.739998,71.629997,72.190002,3479200,32.98489
"73",72.07,72.910004,72.07,72.080002,2888600,32.934629
"74",71.610001,72.32,71.110001,71.449997,2097200,32.646768
"75",72.510002,73.18,72.07,72.919998,1983000,33.318438
"76",72.93,73.199997,72.580002,72.779999,1337800,33.25447
"77",73.050003,73.32,71.639999,73.139999,2593600,33.418961
"78",72.760002,73.5,72.529999,72.900002,2728800,33.309301
"79",73.5,73.989998,72.330002,72.800003,3623200,33.26361
"80",73.5,73.5,72.68,73.089996,1215200,33.396113
"81",72.760002,73.07,72.099998,72.239998,2593800,33.007734
"82",72.93,74.349998,72.760002,74,2816600,33.81191
"83",73.760002,74.959999,73.760002,74.760002,2480000,34.159168
"84",75,75,73.919998,74.550003,1865400,34.063216
"85",74.510002,75.449997,74.459999,75.209999,1529400,34.36478
"86",75.370003,75.589996,74.730003,75,1533200,34.268828
"87",74.620003,75.650002,74.260002,75.5,2126800,34.497287
"88",75.849998,76.620003,75.849998,76.239998,2148800,34.835405
"89",76.190002,76.550003,75.870003,76.330002,2981400,34.876529
"90",77.040001,77.339996,75.830002,76.769997,3054200,35.077571
"91",76.849998,77.07,76.389999,76.879997,1964200,35.127832
"92",75.809998,76.790001,75.260002,75.769997,2606600,34.620653
"93",75.93,77.949997,75.400002,77.459999,2528000,35.392845
"94",76.489998,77.370003,75.949997,76.669998,3338400,35.031879
"95",77.379997,77.379997,76.25,76.43,2204600,34.92222
"96",76.900002,78,76.620003,77.330002,2346600,35.333447
"97",76.709999,77.68,76.260002,77.300003,2527200,35.31974
"98",76.300003,76.879997,75.839996,76.769997,2008200,35.077571
"99",77.220001,77.599998,76.099998,76.599998,1880200,34.999895
"100",76.269997,77.160004,76.099998,76.699997,2045000,35.045586
"101",77.120003,77.860001,76.25,76.669998,2872600,35.031879
"102",77.290001,78.139999,77.290001,77.639999,1939800,35.47509
"103",77.690002,78.220001,76.900002,77.889999,2382400,35.58932
"104",78.690002,79.410004,78.529999,79.129997,2351600,36.155897
"105",79.059998,79.839996,78.660004,79.669998,2547800,36.402633
"106",78.959999,79.370003,78.660004,79.089996,2147400,36.388828
"107",79.199997,79.419998,77.940002,78.260002,1739400,36.006953
"108",78.129997,78.330002,77.120003,78.019997,2944800,35.896528
"109",77.370003,78.480003,77.139999,78.110001,2187600,35.937938
"110",77.110001,77.800003,76.400002,76.779999,2021400,35.326013
"111",76.910004,77.870003,76.720001,76.860001,2300400,35.362821
"112",76.290001,76.379997,75.019997,75.580002,3088400,34.773901
"113",75.68,76.639999,75.349998,76.080002,2257600,35.003948
"114",77.120003,78.019997,77,77.550003,1978000,35.680287
"115",77.410004,77.739998,76.910004,77.379997,1889600,35.602068
"116",76.93,77.559998,76.010002,77.349998,1493400,35.588266
"117",76.300003,76.419998,75.349998,75.919998,1723200,34.930331
"118",76.410004,77.82,76.410004,77.790001,1523200,35.790708
"119",76.970001,78,76.870003,77.629997,1231600,35.717092
"120",77,77.949997,76.209999,77.800003,2555600,35.79531
"121",77.019997,78.5,76.75,77.959999,4179800,35.868924
"122",79.120003,79.949997,78.989998,79.860001,2322600,36.743103
"123",79.769997,80.290001,79.519997,80.190002,2519000,36.894935
"124",79.82,80.989998,79.68,80.800003,2015800,37.175592
"125",80.43,80.5,79.779999,79.949997,1900000,36.78451
"126",80.769997,80.989998,80.32,80.449997,2397600,37.014556
"127",80.400002,80.800003,79.599998,79.839996,2013600,36.733899
"128",80.239998,80.239998,79.519997,80.050003,1771200,36.830522
"129",80.43,80.919998,80.18,80.900002,1953800,37.221601
"130",80.980003,81.300003,80.459999,80.459999,2438200,37.019158
"131",80.699997,81.599998,80.480003,81.330002,2090200,37.419441
"132",81.150002,82.589996,81.150002,82.099998,2774600,37.773712
"133",81.989998,81.989998,81.019997,81.459999,3519800,37.479252
"134",81.639999,82.160004,81.029999,82.010002,4614400,37.732305
"135",81.949997,82.489998,81.769997,82.360001,1768600,37.893338
"136",82.5,82.949997,82.389999,82.480003,1970000,37.94855
"137",82.730003,82.849998,82.230003,82.639999,1005800,38.022163
"138",82.599998,83,82.440002,82.800003,969400,38.09578
"139",82.419998,83.199997,82.300003,83.019997,1048800,38.196998
"140",82.949997,84.059998,82.93,83.849998,1934200,38.578877
"141",83.849998,84.459999,83.849998,84.209999,1451600,38.744511
"142",83.949997,84.279999,83.580002,83.849998,1576800,38.578877
"143",83.860001,84.589996,83.690002,84.07,1508600,38.680098
"144",84.510002,85.050003,84.309998,84.690002,1862400,38.965357
"145",84.650002,84.690002,82.889999,83.43,2342400,38.385638
"146",83.279999,84.120003,83.029999,83.900002,2480000,38.601883
"147",83.860001,83.989998,83.339996,83.599998,2642400,38.463853
"148",83.059998,83.540001,81.800003,82.32,3316200,37.874933
"149",82.080002,82.879997,81.110001,82.580002,3072400,37.994559
"150",82.629997,82.989998,81.900002,82.029999,2391800,37.741506
"151",82.559998,83.169998,82.410004,83.010002,1643000,38.192399
"152",82.800003,83.080002,82.379997,82.540001,1326200,37.976155
"153",82.730003,83.32,82.230003,83.139999,1719200,38.25221
"154",83.290001,83.559998,83.029999,83.190002,2133400,38.275216
"155",83.239998,83.410004,82.110001,82.790001,3433200,38.091178
"156",80.489998,81.900002,78.75,81.360001,6078800,37.433244
"157",82.080002,82.93,81.809998,82.150002,3565000,37.796718
"158",82.25,83.339996,82.080002,83.309998,3091000,38.330425
"159",83.129997,83.959999,82.75,83.580002,2335800,38.454653
"160",84,85.440002,83.720001,84.790001,2864200,39.011366
"161",84,84.519997,83.459999,83.919998,2519800,38.611083
"162",84.220001,85.349998,82.949997,83.230003,4426000,38.293621
"163",83.43,85,83.339996,84.279999,4291800,38.776717
"164",84.760002,86.220001,84.760002,86.010002,3185400,39.572681
"165",85.639999,85.809998,84.919998,85.150002,1654600,39.177
"166",85.050003,85.879997,84.419998,85.599998,1809200,39.384041
"167",85.610001,86.040001,84.949997,85.849998,1313600,39.499064
"168",86.07,86.879997,85.870003,86.089996,3084800,39.609486
"169",86.080002,86.900002,86.029999,86.730003,1832800,39.903949
"170",86.290001,86.650002,85.650002,86.489998,1669000,39.793524
"171",86.07,87.800003,85.82,87.519997,2082200,40.267421
"172",87.110001,88.690002,87.019997,88.379997,2031400,40.663102
"173",88.389999,88.860001,88.25,88.489998,2040800,40.713712
"174",88.260002,88.879997,88,88.349998,2577000,40.649299
"175",88.169998,89.019997,88.120003,88.699997,2346400,41.065976
"176",88.580002,89.599998,88.349998,89.449997,1676800,41.413208
"177",89.93,90.339996,89.120003,90.139999,2684600,41.732663
"178",88.739998,89.139999,86.949997,87.059998,2736800,40.306695
"179",87.080002,87.699997,85.150002,86.550003,3479800,40.07058
"180",86.410004,87.260002,84.68,85.949997,2596800,39.792792
"181",86.730003,87.75,86.300003,87.43,2764200,40.477998
"182",87.580002,88.730003,87.550003,88.379997,2675400,40.917824
"183",88.870003,89.160004,87.650002,87.739998,3718600,40.621519
"184",87.410004,88.68,87.400002,88.010002,3117200,40.746525
"185",88.910004,89.82,88.889999,89.739998,2083600,41.547471
"186",89.489998,89.809998,87.900002,88.57,2217600,41.00579
"187",88.93,89.639999,86.860001,87.519997,2910000,40.519664
"188",87.860001,89.150002,87.190002,88.830002,1613400,41.126165
"189",88.510002,88.809998,87.360001,88.050003,1723600,40.765044
"190",87.209999,87.300003,86,86.449997,2717200,40.02428
"191",86.029999,88,85.949997,87.5,2404800,40.510406
"192",87.25,88.18,86.75,87.839996,1807400,40.667816
"193",85.290001,87.440002,85.010002,86.800003,2989800,40.186324
"194",86.370003,87.050003,84.690002,85.519997,3613000,39.593712
"195",87.019997,88.699997,86.769997,87.160004,4111000,40.352996
"196",88.57,88.959999,87.400002,87.459999,4042000,40.491887
"197",88.870003,88.949997,88.209999,88.559998,2847200,41.001159
"198",88.949997,88.970001,87.959999,88.089996,2062000,40.78356
"199",87.769997,88.599998,87,88.279999,1911400,40.871527
"200",88.779999,88.980003,87.910004,88.68,1267200,41.056718
"201",89,90,88.779999,89.440002,1886200,41.408581
"202",89.839996,89.989998,89.269997,89.379997,1987400,41.3808
"203",89.389999,90.639999,89.010002,90.589996,2650800,41.941
"204",94.440002,96.559998,93.699997,95.93,9503600,44.413294
"205",95.540001,95.949997,95.129997,95.209999,3821000,44.079951
"206",95.529999,96.550003,94.650002,95.099998,3171600,44.029023
"207",95.199997,96.760002,95.18,96.489998,2891200,44.67256
"208",96.160004,97.809998,95.470001,96.349998,2635200,44.607743
"209",96.849998,97.150002,96.209999,96.410004,2234600,44.635524
"210",96.389999,96.970001,95.550003,96.07,1998000,44.478111
"211",96.400002,96.699997,94.57,95.339996,1797600,44.140137
"212",95.470001,96,94.5,94.940002,1570600,43.954949
"213",94.129997,94.739998,93.470001,93.760002,1931200,43.408637
"214",94.290001,94.43,91.599998,92.269997,3508600,42.7188
"215",92,92.879997,91.709999,92.489998,2554200,42.820656
"216",92.769997,93.019997,91.839996,92.650002,3470400,42.894733
"217",91.440002,91.709999,90.139999,91.389999,2666400,42.311383
"218",91.510002,93.190002,91.389999,93.139999,2242400,43.121591
"219",94.449997,94.959999,93.589996,94.540001,3214800,43.769758
"220",94.610001,95.730003,93.919998,94.639999,2151600,43.816055
"221",94.879997,95,93.199997,93.43,1589200,43.255854
"222",94.080002,94.68,93.559998,93.970001,1622200,43.505862
"223",94.199997,94.290001,92.43,93.599998,2237200,43.334559
"224",93.559998,94.309998,93.459999,94.139999,1269800,43.584567
"225",94.589996,94.730003,93.739998,94.669998,2200000,43.829944
"226",95,95.489998,94.010002,94.129997,1531200,43.579936
"227",94.239998,94.400002,91.339996,92.099998,2552400,42.640095
"228",92.029999,92.489998,89.790001,90.389999,2317000,41.848407
"229",89.970001,91.360001,89.779999,90.239998,2361600,41.778959
"230",91.089996,91.910004,89.940002,90.389999,2912000,42.114422
"231",90.510002,91.620003,90.260002,91.279999,1509200,42.52909
"232",91.720001,92.309998,91.300003,91.779999,1566600,42.76205
"233",91.779999,91.800003,89.580002,89.989998,2334000,41.928054
"234",89.949997,90.040001,88.529999,89.709999,2295800,41.797597
"235",89.519997,90.040001,87.82,88.470001,2041400,41.219859
"236",88.169998,89.699997,87.900002,88.620003,2291200,41.289747
"237",88.330002,88.519997,86.830002,87.419998,2869200,40.730642
"238",87.739998,89.230003,87.220001,89.080002,2237000,41.50407
"239",89.529999,90.080002,88.349998,88.93,1569800,41.434181
"240",88.889999,88.889999,87.010002,88.050003,1727000,41.024174
"241",86.940002,87,86.059998,86.660004,2109400,40.376546
"242",86.93,87.540001,85.75,85.93,2030000,40.036424
"243",85.599998,87.650002,85.599998,87.330002,2050400,40.688711
"244",87.190002,87.660004,86.400002,87.099998,1934400,40.581548
"245",87.559998,88.300003,87.379997,87.800003,1246600,40.907694
"246",88.580002,88.93,87.790001,88.699997,1907800,41.327018
"247",88.43,88.639999,86.720001,86.760002,2265600,40.423138
"248",86.629997,87.629997,85.720001,86.169998,2019400,40.148243
"249",84.949997,85.279999,84.389999,84.93,2184400,39.570505
"250",84.879997,85.419998,84.050003,84.099998,1402200,39.183791
"251",84.870003,86.260002,84.709999,85.68,3086000,39.919944
"252",85.230003,85.239998,84.269997,84.449997,2152400,39.346862
"253",84.68,85.75,84.339996,85.260002,1453600,39.724259
"254",85.050003,85.080002,83.949997,84.110001,2139600,39.188451
"255",84.25,84.559998,83.400002,83.839996,2083200,39.062651
"256",84.860001,85.879997,84.860001,85.5,1447800,39.836079
"257",84.459999,84.949997,83.25,83.970001,2365000,39.123223
"258",83.720001,84.68,82.760002,84.110001,2479800,39.188451
"259",84.720001,85.260002,84.290001,84.75,3378200,39.486639
"260",84.480003,85.739998,84.400002,85.43,1530200,39.803464
"261",86.019997,87.889999,85.830002,87.730003,1862400,40.87508
"262",87.739998,88.610001,87.199997,87.739998,2220800,40.879736
"263",86.339996,87.080002,85.25,87.010002,2461600,40.539617
"264",87.160004,87.410004,86.279999,87.160004,6506400,40.609506
"265",86.709999,87.5,85.419998,86.959999,2778200,40.51632
"266",87.489998,88.459999,86.870003,88.459999,2621200,41.215199
"267",88.800003,89.389999,87.919998,89.139999,2270800,41.532024
"268",89.510002,90.970001,89.160004,90.790001,2171400,42.300791
"269",90.980003,92.010002,90.440002,91.849998,1576000,42.794664
"270",91.599998,91.760002,91,91.489998,1991400,42.626933
"271",91.790001,93.389999,91.580002,92.510002,3381000,43.102172
"272",93.519997,93.849998,93.089996,93.370003,2125800,43.502863
"273",92.029999,92.230003,91.370003,92.120003,2855200,42.920464
"274",90.580002,91.169998,89.860001,90.269997,2099400,42.058511
"275",90.019997,90.690002,89.709999,89.849998,2209200,41.862826
"276",90.43,90.93,89.720001,89.93,2290400,41.9001
"277",89.980003,90.239998,88.300003,88.449997,3396800,41.210538
"278",88.849998,89.75,88.589996,89.669998,2330800,41.77896
"279",89.489998,89.489998,88.18,88.709999,2775800,41.331678
"280",89.18,89.910004,88.980003,89.239998,2765200,41.578615
"281",89.43,89.690002,88.699997,89.349998,1683400,41.629866
"282",91.550003,91.650002,89.760002,89.980003,2847800,41.923397
"283",90,90.580002,88.669998,88.940002,2869800,41.438841
"284",88.150002,89.699997,87.790001,88.550003,2958600,41.257133
"285",88.480003,88.510002,86.419998,86.589996,3417000,40.343929
"286",86.199997,86.529999,84.910004,85,2532600,39.603119
"287",85.330002,86.379997,84.419998,84.550003,2436000,39.393457
"288",83.400002,84.910004,83.050003,84.199997,2502400,39.230382
"289",85.419998,85.709999,82.809998,83.900002,3004200,39.090609
"290",83.379997,84.18,81.699997,81.720001,3657200,38.074905
"291",82.050003,82.760002,79.650002,82.639999,5202400,38.50355
"292",81.510002,81.510002,77.620003,77.68,5494200,36.192592
"293",79.150002,79.589996,76.239998,77.879997,6098200,36.285774
"294",75.699997,76.610001,72,72.949997,6841400,34.239391
"295",74.089996,77.519997,72.760002,77.309998,5494200,36.285775
"296",75.349998,75.879997,72.910004,73.059998,5031400,34.29102
"297",73.370003,75.75,72.949997,74.910004,6495000,35.159328
"298",76.150002,76.279999,74.75,75.059998,5024600,35.229728
"299",75.639999,76.669998,75.139999,76.620003,3972200,35.961923
"300",75.75,76.019997,74.419998,75.199997,2853200,35.295438
"301",75.669998,76.779999,74.779999,75.300003,2539000,35.342376
"302",73.139999,73.25,69.860001,70.410004,4565200,33.047234
"303",69.389999,71.230003,68.800003,68.879997,4102000,32.329119
"304",70.330002,70.800003,68.699997,68.940002,2695200,32.357283
"305",69.239998,71.139999,68.860001,71.139999,2898200,33.38986
"306",70.809998,72,70.300003,71.889999,2250200,33.741876
"307",72.349998,72.739998,70.690002,71.080002,1811200,33.3617
"308",71.330002,72.68,69.139999,72.339996,2721000,33.953084
"309",73.339996,75.519997,73.279999,75.489998,2654800,35.431551
"310",75.160004,76.940002,74.919998,76.480003,3296200,35.896214
"311",77.040001,77.639999,76.07,76.589996,3230800,35.94784
"312",76.699997,77.150002,74.949997,75.029999,3396800,35.215648
"313",73.5,74.010002,73.339996,73.57,4484400,34.530391
"314",71.529999,73.260002,71.300003,73.199997,4522800,34.356729
"315",74.339996,75.029999,74.300003,75.010002,4785000,35.206263
"316",74.540001,75.419998,74.349998,74.839996,4882800,35.12647
"317",73.910004,73.970001,72.650002,73.099998,4372800,34.309794
"318",72.279999,73.449997,71.529999,73.120003,3634200,34.319183
"319",73.599998,74.910004,73.110001,74.690002,2617000,35.056069
"320",75.18,76.93,73.809998,76,3188800,35.670922
"321",76.779999,77.720001,76.489998,77.419998,1939000,36.337405
"322",77.879997,78.769997,77.529999,78.639999,3665800,36.910017
"323",76.980003,78,76,77.720001,3521800,36.478212
"324",78.129997,79.129997,77.019997,77.519997,3230600,36.384339
"325",77.389999,77.629997,73.5,73.540001,3403000,34.516311
"326",71.120003,71.230003,68.910004,70.099998,4302400,32.901732
"327",69.5,70.589996,68.269997,68.82,4296600,32.300959
"328",69.559998,72.5,68.489998,72.440002,4231800,34.000022
"329",74.459999,76.160004,73.580002,74.519997,4353000,34.976277
"330",74.699997,74.849998,71.449997,71.5,3150400,33.558828
"331",74.139999,74.139999,70.989998,72.349998,3277800,33.957779
"332",71.07,72.190002,70.5,70.660004,3580000,33.164572
"333",70,71.559998,68.580002,68.68,4649600,32.235249
"334",67.660004,70.769997,66.43,70.669998,3800000,33.169263
"335",71.160004,73.099998,70.209999,72.760002,2834600,34.150216
"336",72.400002,73.809998,71.199997,73.709999,3156000,34.596101
"337",73.849998,74.650002,72.43,73.480003,2431800,34.488151
"338",74.989998,76.650002,74.959999,76.440002,1773000,35.877439
"339",76.110001,76.82,75.660004,76.209999,1768200,35.769486
"340",76.919998,78.440002,76.919998,77.760002,2265200,36.496987
"341",76.760002,77.919998,76.169998,77.669998,2230600,36.454743
"342",78.839996,79.830002,78.129997,79.709999,1723800,37.412226
"343",79.580002,79.889999,77.529999,77.839996,2406600,36.534532
"344",77.690002,81.190002,77.279999,80.730003,2569400,37.89097
"345",80.5,81,78.300003,78.839996,3214200,37.003887
"346",80.169998,80.940002,78.290001,80.68,3083600,37.8675
"347",81.970001,83.760002,81.709999,83.68,3253000,39.275563
"348",83.970001,84.849998,83.599998,84.400002,4141200,39.613499
"349",84.099998,84.650002,82.419998,82.529999,2437200,38.735805
"350",84.07,85.400002,82.75,84.860001,2575600,39.829401
"351",87.139999,89.959999,86.459999,88.93,3321400,41.739673
"352",88.209999,90,87.790001,89.370003,2747600,41.94619
"353",87.779999,88.080002,86.349998,86.410004,2570200,40.556902
"354",83.080002,86.639999,83.080002,84.599998,2919000,39.707368
"355",85.639999,87.339996,85.349998,86.699997,1528000,40.693011
"356",88,88.959999,86.769997,88.660004,1808200,41.612949
"357",88.099998,88.790001,86.550003,88.510002,1379400,41.542545
"358",88.730003,89.360001,87.099998,88.900002,1545400,41.725593
"359",88.769997,89.589996,87.529999,89.379997,1592800,42.221593
"360",86.800003,87.209999,84.800003,85.419998,2782400,40.350957
"361",86.309998,86.970001,85.07,86.220001,2048000,40.728865
"362",87.639999,88.580002,87.599998,88.110001,1770600,41.621668
"363",87.779999,88.089996,86.620003,87.290001,2215400,41.234314
"364",86.849998,87.989998,86.309998,87.349998,1856000,41.262656
"365",85.860001,86.809998,84.809998,84.93,3101800,40.11949
"366",84.699997,85.529999,81.970001,82.709999,3370400,39.070799
"367",83.330002,84.25,82.599998,83.599998,1875000,39.49122
"368",82.379997,82.449997,81.110001,81.830002,2667000,38.655104
"369",81.510002,82.610001,80.639999,81.269997,3696000,38.390567
"370",80.300003,80.660004,79.389999,79.57,1838200,37.587517
"371",79.220001,80.400002,79.07,79.449997,648800,37.53083
"372",82.290001,83.25,81.949997,82.550003,1879200,38.99522
"373",83.93,84.059998,82.629997,83.139999,2540400,39.273924
"374",86.339996,87.790001,85.910004,87.75,2561600,41.45161
"375",87.190002,87.779999,86.160004,86.550003,1896600,40.884752
"376",86.519997,86.980003,84.589996,84.870003,3056800,40.091148
"377",86.410004,87.050003,84.629997,85.169998,2882600,40.232861
"378",85.120003,86.25,84.5,85.440002,1924800,40.360407
"379",85.160004,85.449997,84.120003,84.669998,2954000,39.99667
"380",84.379997,84.529999,82.43,82.629997,2837200,39.033008
"381",81.589996,84.349998,81.199997,83.940002,2948400,39.651832
"382",82.790001,82.949997,81.889999,82.519997,1896200,38.981045
"383",83.209999,84.07,80.739998,81.360001,2925200,38.433083
"384",80.839996,81.349998,79.870003,80.199997,2869000,37.885117
"385",81.410004,81.599998,79.639999,80.120003,2821400,37.847329
"386",80.900002,82.129997,80.199997,80.870003,2922600,38.201616
"387",81,81.440002,78.800003,79.129997,2262200,37.379667
"388",80.040001,81.370003,79.949997,80.779999,4068400,38.1591
"389",81.160004,82.230003,80.540001,82.160004,2117000,38.810991
"390",82.269997,82.650002,81.709999,82.360001,2810800,38.905466
"391",82.540001,83.550003,82.360001,83.510002,1213800,39.448707
"392",83.300003,84.440002,83.18,83.959999,1048600,39.661278
"393",84.120003,84.239998,82.639999,82.790001,1399200,39.108591
"394",82.849998,84.059998,82.449997,83.989998,1251000,39.675449
"395",84.120003,84.230003,83.489998,83.489998,1114000,39.439258
"396",85.300003,86.279999,84.959999,85.120003,1474400,40.209244
"397",85.099998,85.68,84.580002,85.300003,1453800,40.294273
"398",84.489998,84.639999,83.269997,84.540001,2289200,39.935261
"399",84.480003,84.940002,84.239998,84.760002,1253400,40.039186
"400",84.800003,84.970001,83.919998,84.330002,1711600,39.836061
"401",85.410004,86.660004,85.309998,86.139999,1536000,40.691073
"402",85.900002,86.599998,85.82,86.599998,1591000,40.908369
"403",86.75,88.089996,86.449997,88,1364200,41.569706
"404",87.699997,88.019997,86.410004,87.519997,1440200,41.342961
"405",88.739998,89.040001,87.599998,88.040001,1382200,41.588602
"406",88.269997,89.980003,88.080002,89.900002,2100000,42.467234
"407",89.400002,89.400002,86.739998,87.760002,4021200,41.456335
"408",87.690002,89.199997,87.690002,88.919998,2433200,42.004297
"409",88.849998,89,88.019997,88.330002,1358000,41.725593
"410",87.5,88.610001,87.239998,88.5,1800800,41.805897
"411",88.080002,89.690002,87.650002,89.419998,1366400,42.240489
"412",89.949997,90.889999,88.510002,88.830002,1910000,41.961785
"413",88.739998,89.519997,88.07,89.059998,1581200,42.070431
"414",88.029999,89.589996,87.610001,89.470001,1609600,42.26411
"415",89.800003,90,88.529999,89.580002,2158600,42.316072
"416",90.720001,91.629997,90.300003,90.860001,2308600,42.920722
"417",90.980003,90.980003,89.699997,89.800003,1325800,42.419997
"418",90.970001,91.559998,90.699997,91.220001,2186800,43.09078
"419",90.669998,90.949997,90.43,90.879997,972800,42.930168
"420",90.57,91.400002,89.989998,91.269997,1378400,43.114397
"421",91.230003,91.699997,90.370003,91.610001,1224000,43.275009
"422",91.610001,92.089996,91.160004,92.029999,1846400,43.473409
"423",91.160004,91.160004,90.18,90.830002,1490000,42.906551
"424",91.410004,91.830002,90.830002,91.080002,1035200,43.024647
"425",91.040001,91.379997,89.68,90.519997,1943200,42.76011
"426",90.620003,90.620003,89.349998,89.940002,1619600,42.755357
"427",90.07,91.519997,89.900002,91.400002,1404800,43.449406
"428",91.860001,92.449997,91.540001,92.120003,1616800,43.791678
"429",91.32,92.300003,90.900002,91.970001,2848400,43.720371
"430",91.980003,93.160004,91.730003,91.800003,2048600,43.639557
"431",91.690002,92.5,91.480003,92.199997,1010200,43.829705
"432",92,92.559998,91.489998,91.669998,1290600,43.577756
"433",91.190002,93.18,90.699997,92.940002,1776400,44.181486
"434",92.790001,93.669998,92.349998,92.93,2121400,44.176732
"435",92.919998,93.139999,90.940002,91.25,2340400,43.378099
"436",91.489998,92.980003,91.489998,92.660004,1628400,44.048381
"437",92.949997,93.400002,92.110001,92.5,1115800,43.97232
"438",92.160004,92.300003,91.199997,91.620003,1310200,43.55399
"439",90.230003,90.959999,90.040001,90.410004,1556200,42.978785
"440",90.629997,90.93,90.050003,90.550003,1958200,43.045337
"441",91.510002,93.389999,91.400002,92.940002,2057400,44.181486
"442",93,93.639999,92.599998,92.769997,1498600,44.10067
"443",92.959999,93.629997,92.68,93.089996,1302800,44.25279
"444",93.709999,94.410004,93.370003,94.309998,1717600,44.83275
"445",94.18,94.589996,93.25,93.68,1530600,44.533264
"446",93.900002,93.970001,93.260002,93.639999,2040600,44.514248
"447",94.07,94.519997,93.339996,93.589996,2810400,44.490478
"448",93.349998,94.769997,93.349998,94.459999,3569800,44.904057
"449",93.760002,94.190002,93.32,93.93,2414800,44.652108
"450",93.889999,94.650002,93.379997,94.139999,1573200,44.751937
"451",93.599998,93.620003,92.57,92.959999,1403600,44.190992
"452",93.080002,94.169998,92.370003,93.650002,1505000,44.519003
"453",94.330002,95.419998,93.830002,95.410004,1606400,45.355667
"454",95.57,96.330002,95.440002,95.739998,1613400,45.512538
"455",95.760002,96.400002,94.370003,94.779999,2311200,45.056177
"456",94,95.82,94,95.690002,2069600,45.488771
"457",96.400002,96.400002,95.410004,95.800003,1379800,45.541063
"458",95.639999,97.800003,95.589996,97.68,3147400,46.43477
"459",97.220001,97.370003,94.510002,95.68,4339800,45.484017
"460",94.980003,95.040001,93.730003,93.919998,4387600,44.647353
"461",97.699997,98.550003,95.300003,96.290001,10618200,45.773997
"462",94.980003,95.639999,94.199997,94.25,5608400,44.804228
"463",94.089996,94.379997,91.849998,92.089996,6467600,43.777413
"464",93.32,94.879997,93.120003,94.540001,3005000,44.942088
"465",94.760002,97.120003,94.440002,96.830002,3351600,46.0307
"466",96.32,96.610001,95.599998,95.720001,2812000,45.503032
"467",97.230003,97.489998,95.510002,96.900002,2475000,46.063977
"468",97.57,98.739998,97.260002,98.339996,2452200,46.748516
"469",97.639999,98.889999,97.160004,98.470001,3161200,46.810317
"470",98.970001,101.900002,97.389999,101,7325800,48.013019
"471",101.300003,102.18,100.290001,101.290001,4019000,48.150879
"472",100.589996,101.040001,99.400002,101.010002,3354000,48.017774
"473",101.220001,102.160004,101.099998,102,3629600,48.488396
"474",102.669998,104.269997,102.389999,104.169998,2344400,49.519962
"475",103.690002,105.82,103.400002,105.220001,2474200,50.019108
"476",105.720001,106.110001,105.07,105.660004,1886000,50.228275
"477",105.889999,106.400002,104.910004,105.239998,2057600,50.028614
"478",105.07,107.669998,104.980003,107.040001,3296000,50.884293
"479",106.239998,107.309998,106.089996,107.190002,2404400,50.9556
"480",107,107.949997,106.550003,107.199997,2159200,50.960352
"481",106.599998,106.75,105.419998,105.669998,2346400,50.233026
"482",105.010002,107.040001,104.949997,106.900002,2005200,50.817741
"483",106,106.739998,104.949997,106.510002,2474400,50.913344
"484",104.889999,106.699997,104.269997,105.940002,3002800,50.640876
"485",106.989998,107.010002,105.480003,105.730003,1949800,50.540493
"486",105.190002,106.379997,104.919998,105.190002,2072600,50.282365
"487",104,104.510002,102.980003,103.120003,2829800,49.292875
"488",102.809998,103.610001,101.879997,102.18,2805000,48.84354
"489",102.43,103.459999,101.620003,101.75,1595000,48.637993
"490",102,102.139999,98.769997,98.849998,2631800,47.25175
"491",99.669998,99.75,97.089996,97.559998,2702000,46.635111
"492",98.129997,99.720001,97.620003,99.540001,1885200,47.581581
"493",100,100.720001,98.739998,99.260002,1652200,47.447738
"494",98.360001,101.25,97.870003,100.800003,3235000,48.183881
"495",103.870003,104.589996,102.239998,104.199997,4060600,49.809128
"496",103.519997,104.650002,102.650002,103.18,1927600,49.321555
"497",104.610001,105.949997,104.269997,105.099998,1975200,50.239342
"498",104.080002,104.209999,101.720001,102.260002,2990600,48.881782
"499",102.410004,104.129997,101.309998,103.440002,2496000,49.445839
"500",100.379997,101.5,98.720001,98.959999,2962200,47.304332
"501",98.910004,99,96.739998,97.769997,2805400,46.735493
"502",97.339996,99.160004,97.300003,98.989998,1931000,47.318672
"503",99.900002,101.809998,99.870003,101.809998,1831200,48.666673
"504",103.559998,104.459999,102.389999,102.580002,3591000,49.034747
"505",102.410004,103.82,101.769997,103.68,1161200,49.560562
"506",104.790001,104.919998,101.790001,101.959999,2061400,48.738376
"507",102.459999,104.25,101.830002,104.150002,1430800,49.785229
"508",103.370003,103.629997,101.580002,101.910004,1292800,48.714478
"509",102.040001,102.449997,100.620003,101.760002,2165000,48.642775
"510",102.480003,104.260002,102.199997,104.139999,2017200,49.780448
"511",103.540001,104.889999,103.32,104.779999,1156400,50.086377
"512",105.239998,106.690002,105.209999,106.18,1549400,50.755599
"513",106.029999,106.889999,105.330002,106.040001,1381200,50.688677
"514",106.099998,106.43,102.25,102.419998,1698200,48.958262
"515",103.82,104.730003,102.360001,104.190002,3313000,49.80435
"516",103.230003,103.230003,101.18,101.330002,2720000,48.437228
"517",101.809998,103.459999,101.150002,102.839996,2111800,49.159028
"518",102.339996,103.919998,102.339996,103.480003,1488400,49.46496
"519",103.010002,103.690002,101.650002,103.5,2177200,49.474519
"520",105.220001,106.169998,104.830002,106.120003,1540600,50.726919
"521",106.309998,106.309998,103.779999,104.699997,1776400,50.048135
"522",104.480003,105.239998,103.93,104.879997,1090200,50.134178
"523",104.400002,106.120003,104.019997,105.489998,1239200,50.425767
"524",104.190002,105.889999,103.860001,105.57,1773400,50.464009
"525",105.379997,105.57,103,103.370003,2057000,49.412379
"526",103.489998,104.440002,101.620003,102.139999,1250200,48.824419
"527",102.160004,102.199997,99.830002,100.879997,2796000,48.222119
"528",99.889999,101.260002,99.120003,100.660004,1505400,48.116959
"529",101.279999,103.449997,101.279999,103.339996,2042600,49.398035
"530",102.900002,103.389999,101.599998,102.129997,1320200,48.819638
"531",102.589996,104.32,101.919998,104.129997,1810400,49.775667
"532",103.480003,104.860001,103.480003,104.190002,1674800,49.80435
"533",109.25,112.18,106.849998,111.959999,8464000,53.518523
"534",110.559998,114.620003,109.459999,113.849998,5981800,54.42197
"535",110.900002,112.489998,110.160004,110.75,4179800,52.940126
"536",111.029999,111.029999,107.639999,108.559998,2908000,51.893272
"537",109.080002,109.650002,107.300003,107.489998,2652600,51.381797
"538",109.790001,109.790001,107.919998,108.230003,2406200,51.73553
"539",109,110.68,108.790001,110.419998,2467400,52.78238
"540",110.260002,111.860001,110.099998,110.989998,1442600,53.054848
"541",110.830002,111.139999,109.379997,109.459999,2165200,52.323486
"542",109.93,111.089996,108.059998,108.059998,1861200,51.654265
"543",107.25,108.040001,105.870003,107.639999,2126400,51.4535
"544",109.489998,109.68,108.440002,109.199997,2135800,52.199201
"545",109.110001,110.540001,108.830002,109.900002,2053800,52.533814
"546",110.639999,111.769997,109.709999,111.519997,2094600,53.308195
"547",110.410004,111.5,108.639999,111.110001,1953200,53.394698
"548",110.75,111.870003,110.449997,111.370003,1057400,53.519644
"549",110.739998,110.82,109.82,110.82,1301200,53.255336
"550",110.839996,110.989998,109.150002,110.139999,919800,52.928557
"551",110.230003,110.82,108.139999,108.480003,1705600,52.130834
"552",108.309998,109.550003,107.959999,109.43,986600,52.587362
"553",109.760002,110.290001,108.849998,110.040001,901600,52.880502
"554",110.559998,110.650002,110.050003,110.25,1243800,52.981419
"555",109.839996,110.199997,108.800003,109.160004,1397600,52.457613
"556",109.160004,109.540001,107.160004,107.470001,1883000,51.64547
"557",106.900002,111.07,106.860001,111.050003,2452600,53.365866
"558",110.550003,110.699997,108.739998,108.989998,2025400,52.375916
"559",108.959999,109.480003,108.169998,109.150002,1521800,52.452806
"560",109.5,109.809998,108.559998,109.379997,1852800,52.563333
"561",108.959999,109.339996,108.650002,108.889999,1355400,52.327861
"562",109.050003,109.900002,108.260002,109.709999,1431000,52.721917
"563",109.239998,109.57,108.290001,108.489998,1632000,52.135637
"564",109.419998,110.269997,108.610001,110.019997,1298200,52.870889
"565",109.699997,109.989998,107.639999,108.169998,1607600,51.981859
"566",108.400002,108.970001,107.43,108.769997,1455200,52.270192
"567",109.589996,113.010002,109.349998,113,2598000,54.302951
"568",113,113.699997,111.029999,113.139999,2659600,54.370228
"569",114.730003,116.790001,114.349998,115.790001,3120000,55.643705
"570",115.93,116.480003,114.790001,115.870003,1966600,55.682151
"571",116.230003,116.849998,115.269997,115.769997,2183200,55.634092
"572",115.959999,119.639999,115.800003,118.580002,2454000,56.98446
"573",118.790001,119.860001,118.139999,118.839996,2532000,57.109402
"574",118.199997,119.029999,117.779999,118.5,1369800,56.946014
"575",118.5,118.5,116.800003,117.449997,1491200,56.441428
"576",117.419998,117.949997,116.239998,117.239998,1683800,56.340512
"577",116.360001,118.459999,116.010002,118.370003,2218200,56.883543
"578",119.290001,119.300003,117.379997,117.589996,2510600,56.508706
"579",117,117.349998,116.080002,116.809998,1231800,56.133872
"580",117.230003,117.449997,115,115.029999,1412400,55.278481
"581",115.050003,115.800003,114.080002,114.599998,1253400,55.071841
"582",115.019997,116.040001,114.300003,115.230003,1011400,55.374594
"583",114.260002,115.209999,113.190002,114.839996,1058400,55.187174
"584",115.279999,116.309998,114.739998,115.550003,1563200,55.528373
"585",115.779999,115.910004,114,114.629997,897200,55.086257
"586",114.389999,116.639999,114.169998,116.610001,1887600,56.037762
"587",117.050003,117.650002,116.160004,117.019997,1485800,56.234788
"588",118.220001,118.410004,117.029999,117.940002,1723600,56.676904
"589",117.529999,118.029999,116.379997,117.720001,1269600,56.571181
"590",117.639999,117.639999,115.57,115.709999,1067000,55.60526
"591",115.099998,115.970001,114.410004,115.360001,1537800,55.437066
"592",116.470001,117.07,115.459999,115.459999,1022800,55.48512
"593",115.589996,116.150002,113.389999,114.230003,1450000,54.894037
"594",114.370003,116.25,113.760002,116.139999,1237000,55.811899
"595",116.980003,118.900002,115.940002,117.82,1788600,56.619236
"596",118.050003,120,117.440002,118.970001,2254400,57.171877
"597",118.870003,120,117.599998,119.089996,2065600,57.229541
"598",119.440002,119.639999,116.93,117.730003,1844200,56.575987
"599",117.330002,118.330002,116.330002,117.699997,768800,56.561567
"600",114.57,116.309998,113.699997,115.540001,1471800,55.523566
"601",116.300003,117.730003,115.940002,117.169998,1768600,56.306873
"602",117.970001,118,115.5,116.019997,1274400,55.754231
"603",116.019997,116.629997,115.139999,116.120003,1049600,55.80229
"604",116.440002,117.480003,115.949997,117.080002,1499400,56.263624
"605",118.68,121.940002,117.379997,121.800003,1877800,58.531854
"606",122.93,128.419998,119.870003,119.919998,1355600,57.628405
"607",119.839996,121.889999,119.269997,121.779999,994400,58.522241
"608",122.080002,123.75,121.720001,123.190002,2455200,59.199828
"609",122.540001,122.589996,119.690002,120.639999,1317200,58.253402
"610",120.660004,121.360001,117.580002,117.610001,1652400,56.790307
"611",117.370003,118.550003,116.769997,117.379997,1338600,56.679246
"612",117.839996,118.610001,116.75,117.470001,1865400,56.722706
"613",116.480003,118.510002,116.290001,117.449997,1074600,56.713046
"614",117.830002,118.120003,115.989998,116.309998,1789800,56.162575
"615",116.260002,117.059998,114.209999,115.25,1508000,55.650735
"616",115.370003,115.760002,113.809998,115.620003,1504600,55.829398
"617",117.279999,120.529999,117.279999,120.050003,1940600,57.968511
"618",119.830002,121.589996,119.050003,121.550003,1949800,58.692815
"619",121.529999,121.940002,120.889999,121.75,1234800,58.789388
"620",122.519997,123.449997,122.07,123.370003,430400,59.571638
"621",122.519997,123.199997,122.160004,123.010002,1428800,59.397805
"622",122.730003,123.110001,122,122.389999,2635600,59.098424
"623",121.169998,122.18,119.949997,121.900002,2857800,58.861819
"624",122.410004,123.099998,121.400002,122.639999,1920800,59.219141
"625",122.620003,124.870003,121.949997,124.269997,3122200,60.006218
"626",124.989998,125,120.769997,120.940002,3184000,58.398264
"627",121,121.839996,119.400002,120.309998,2586600,58.094054
"628",120.209999,121.199997,119.029999,119.459999,3033600,57.683616
"629",119.669998,123.349998,118.75,123.209999,2827000,59.494377
"630",122.550003,123.349998,120.120003,121.370003,3183000,58.605899
"631",121.169998,124.379997,121.029999,123.839996,2216200,59.798584
"632",124.25,125.699997,123.720001,125.040001,2718400,60.37803
"633",125.760002,125.760002,124.199997,124.550003,2763400,60.141424
"634",124.720001,125.849998,124.25,125.209999,2962800,60.460117
"635",129.050003,132.880005,128.100006,129.929993,6973600,62.739258
"636",130.559998,131.800003,128.720001,130.199997,4298000,62.869635
"637",130.770004,133.259995,130.229996,132.470001,4133600,63.965752
"638",132.369995,132.720001,131.149994,131.210007,2568000,63.357338
"639",132.009995,134.5,131.889999,134.389999,2605400,64.892861
"640",132.809998,134.25,132.330002,133.259995,6761000,64.347216
"641",132.899994,135.509995,132.399994,135.240005,1883600,65.303303
"642",136.199997,136.220001,134.720001,134.740005,2716400,65.061868
"643",134.449997,136.789993,131.449997,133.119995,6768600,64.279614
"644",132.179993,133.729996,131,132.699997,5229000,64.07681
"645",132.289993,135.889999,132.139999,135.350006,4479400,65.356419
"646",138.339996,140.410004,137.419998,138.550003,6377600,66.9016
"647",138.690002,138.970001,137.179993,137.75,5271400,66.515303
"648",138,139.610001,137.25,139.470001,3902400,67.34584
"649",139.139999,139.270004,137.080002,138.259995,5349000,66.761564
"650",138.289993,140.479996,136.199997,140.229996,9107000,67.712818
"651",140.690002,142.740005,140.479996,141.399994,6973400,68.277775
"652",142.259995,142.380005,139.990005,141.770004,6312400,68.456441
"653",141.830002,142.869995,140.919998,142.100006,5700400,68.615789
"654",140.5,142.75,140,141.029999,5870600,68.099115
"655",139.880005,141.5,139.300003,140.139999,4872800,67.669361
"656",139.440002,139.690002,137,139.130005,9656600,67.181666
"657",139.529999,142.75,139.119995,141.979996,8565000,68.55784
"658",141.470001,143.5,137.75,142.729996,11176800,68.919992
"659",142.789993,143.740005,141.039993,142.770004,11673200,68.939311
"660",142.360001,143.770004,141.860001,143.410004,23592400,69.248348
"661",143,146.110001,142.529999,143.979996,20920000,69.523579
"662",145,147.990005,142.669998,144.210007,26017800,69.634645
"663",138.699997,141.75,137.169998,140,16384600,67.60176
"664",140,141.300003,139.130005,141.059998,10351800,68.113601
"665",140.789993,142.910004,139.759995,140.229996,4009600,67.712818
"666",139.169998,140.199997,137.770004,137.869995,4834800,66.573245
"667",139.350006,140.919998,137.949997,140.559998,20167400,67.872166
"668",139.740005,140.289993,138.360001,138.940002,11622000,67.089919
"669",139.429993,140.440002,137,138.369995,12343000,66.81468
"670",137.929993,138.869995,136.860001,138.330002,9345000,66.795368
"671",138.770004,139,136.029999,137.970001,15494000,66.621535
"672",137.990005,139.279999,137.389999,138.880005,8719400,67.060948
"673",139.149994,139.699997,138.149994,139.350006,8051600,67.287898
"674",138.389999,138.389999,135.449997,136.449997,8948200,65.887571
"675",137.020004,139.770004,136.949997,139.110001,7626000,67.172006
"676",138.660004,139.360001,137.910004,139,4826200,67.11889
"677",139.779999,140.070007,138.5,139.389999,3477600,67.307209
"678",138.679993,139.25,135.529999,135.710007,5937200,65.530252
"679",135.279999,135.5,131.490005,131.509995,5181200,63.779476
"680",130.649994,130.649994,128.199997,130.080002,4398400,63.085961
"681",130.369995,132.369995,130.100006,132.320007,3289800,64.172315
"682",132.850006,133.779999,130.279999,130.300003,3971600,63.192657
"683",130.630005,133.059998,130.630005,132.679993,3456800,64.3469
"684",132.110001,135.419998,131.860001,134.660004,2088800,65.307162
"685",134.919998,135.880005,134.610001,134.660004,2700600,65.307162
"686",133.639999,135.419998,132.710007,134.809998,1854200,65.379906
"687",134.600006,135.649994,134.179993,135.589996,1574600,65.758188
"688",136,136.949997,135.789993,136.220001,1673800,66.063727
"689",136.559998,136.910004,134.759995,135.449997,2598400,65.690292
"690",135.720001,135.960007,134.910004,135.470001,1932800,65.699993
"691",136.210007,137.539993,135.479996,137.339996,2103800,66.6069
"692",136.910004,137.960007,136.910004,137.779999,1740800,66.820292
"693",137.550003,139.289993,137.550003,139.139999,2597600,67.479862
"694",139.059998,141.660004,138.960007,141.520004,2648000,68.634113
"695",141.800003,143.229996,141.610001,142.229996,1949400,68.978443
"696",142.119995,143.5,139.110001,141.300003,3185200,68.527417
"697",139.009995,141.860001,138.720001,141.100006,1337200,68.430423
"698",141.690002,141.710007,139.539993,140.869995,1732200,68.318872
"699",141.360001,142.160004,140.839996,141.009995,1729000,68.386769
"700",139.130005,140.059998,137.270004,137.289993,2032800,66.58265
"701",136.990005,138.240005,135.600006,135.970001,1468800,65.942482
"702",136.309998,136.470001,132.639999,133.889999,2310800,64.933727
"703",134.690002,135.899994,133.830002,134.039993,2388200,65.006471
"704",133.070007,133.699997,131.949997,133.419998,1873000,64.705786
"705",133.330002,134.089996,132.869995,133.940002,2106800,64.957977
"706",133.649994,134.470001,133.199997,134.160004,3316800,65.064673
"707",134.759995,134.990005,133.190002,133.690002,1682000,64.836733
"708",134.050003,134.050003,132.199997,132.720001,2736200,64.366303
"709",133.039993,134.889999,132.5,133.899994,1830600,64.938574
"710",131.729996,132.75,130.630005,131.729996,1768600,63.886172
"711",131.600006,132.059998,130.559998,131.449997,2031800,63.750379
"712",131.520004,132.949997,131.380005,132.649994,2561800,64.332351
"713",133.110001,134.880005,132.820007,134.660004,2082200,65.307162
"714",134.690002,138.130005,134.619995,137.610001,2174000,66.737846
"715",136.949997,137.440002,135.520004,136.25,1380000,66.078276
"716",135.169998,135.460007,131.389999,131.440002,2477400,63.745532
"717",132.710007,134.669998,132.110001,134.550003,2623000,65.253814
"718",133.389999,133.979996,131.75,132.399994,2198600,64.211107
"719",135.660004,142,135.660004,140.649994,4781000,68.212177
"720",140.660004,142.229996,139.600006,141.589996,3607000,68.668057
"721",141.619995,144.050003,140.809998,143.550003,2211400,69.618618
"722",143.949997,144.880005,143.119995,144.800003,1593400,70.22484
"723",145,145.850006,144.350006,144.979996,1783800,70.312133
"724",146,148.559998,145.460007,146.910004,1935800,71.248145
"725",146.759995,146.850006,144.25,144.929993,1144800,70.287883
"726",145.639999,147.210007,144.880005,147.020004,1112400,71.301493
"727",147.100006,147.360001,145.630005,147.139999,1635800,71.359688
"728",145.820007,147.089996,145.110001,145.199997,2144400,70.418829
"729",145.880005,148.880005,145.309998,148.479996,1647000,72.009556
"730",150.600006,152.580002,150.009995,152.279999,2041200,73.852475
"731",152.130005,152.130005,150.610001,151.759995,1144200,73.600284
"732",151.880005,153.380005,151.779999,153.220001,1017600,74.308356
"733",152.960007,155.179993,152.380005,155.139999,1932400,75.540251
"734",154.660004,155.130005,153.580002,153.919998,1772000,74.946212
"735",153.789993,154.600006,153.110001,154.130005,1081600,75.048467
"736",153.649994,153.970001,152.429993,153.210007,763400,74.600505
"737",153.490005,156.860001,153.339996,156.809998,1248600,76.3534
"738",156.059998,157.850006,155.570007,156.470001,1648600,76.187851
"739",156.070007,157.399994,155.399994,155.550003,991000,75.739888
"740",156.710007,158.889999,155.889999,158.839996,1144800,77.341841
"741",158.360001,158.479996,155.800003,157.059998,1293000,76.47513
"742",157.539993,159.429993,157.020004,158.940002,1410400,77.390535
"743",158.889999,160.830002,156.589996,157.550003,1292600,76.713721
"744",155.429993,157.899994,154.360001,156.860001,1117600,76.377748
"745",155.639999,157.429993,154.330002,156.830002,1100600,76.363141
"746",158.889999,159.5,156.080002,157.330002,1137000,76.606599
"747",156.210007,157.919998,155.580002,157.100006,767800,76.49461
"748",157.389999,157.630005,155.720001,156.309998,809600,76.109942
"749",155.630005,156.539993,153.610001,153.610001,1100600,74.795269
"750",154.470001,155.289993,152.199997,155.139999,1323200,75.540251
"751",154.889999,156.210007,152.850006,153.559998,1132000,74.770921
"752",153.059998,153.449997,149.929993,149.990005,1146200,73.032633
"753",149.149994,151.580002,149.039993,151.270004,888200,73.655885
"754",153.089996,155.339996,152.520004,154.919998,1367000,75.433128
"755",155.990005,155.990005,153.100006,154.270004,636600,75.116635
"756",151.789993,153.830002,151.009995,151.899994,881200,73.962638
"757",153.350006,153.690002,150.679993,150.949997,818600,73.500069
"758",150.460007,155.899994,150.460007,155.270004,1655200,75.603552
"759",154.369995,155.720001,153.110001,153.830002,919400,74.902391
"760",155,156.940002,154.360001,156.110001,1115600,76.01256
"761",156.039993,156.75,155.110001,156.570007,1032400,76.236545
"762",156.320007,157.220001,154.089996,154.169998,1002000,75.067941
"763",152.25,152.759995,149.610001,150.080002,2130400,73.076453
"764",151.910004,152.039993,147.630005,148.899994,2092600,72.501888
"765",148.830002,148.869995,145.210007,146.679993,1538400,71.420932
"766",149.179993,150.240005,146.770004,147.830002,1300400,71.980891
"767",148.690002,149.960007,146.899994,149,1524600,72.550583
"768",150.100006,150.520004,148.339996,149.029999,1559800,72.565189
"769",147.919998,148.240005,146,146.410004,4672000,71.28947
"770",147.050003,150.190002,146.559998,148.440002,1363000,72.27791
"771",147.850006,149.820007,147.740005,149.080002,1403800,72.589537
"772",147.139999,149.940002,144.580002,149.589996,738400,72.837862
"773",150.570007,152.699997,150.570007,152.419998,1289200,74.215837
"774",153.300003,153.649994,151.309998,153.229996,1203000,74.610238
"775",154.529999,156.789993,153.039993,156.529999,1716000,76.217064
"776",156.580002,157,155.360001,156.039993,1164400,75.978473
"777",159.119995,159.509995,157.130005,158.029999,1771000,76.947439
"778",157.910004,158.130005,156.190002,157.729996,1584600,76.801363
"779",157.979996,158.039993,156.710007,156.990005,850600,76.441049
"780",157.039993,157.089996,154.130005,154.839996,1139400,75.394174
"781",155.639999,156.929993,155.380005,156.860001,1294000,76.377748
"782",156.789993,161.470001,156.179993,160,2736800,77.906666
"783",160.070007,160.940002,159.020004,159.160004,1756800,77.497658
"784",159.009995,161.130005,158.910004,159.729996,2017000,77.775196
"785",160.770004,161.339996,158.940002,159.130005,1342200,77.483051
"786",159.559998,159.869995,156.179993,157.080002,1704000,76.48487
"787",157.089996,158.789993,156.940002,158.729996,1127600,77.28828
"788",158.5,158.5,156.380005,157.110001,1044400,76.499477
"789",158.229996,161.479996,157.419998,161.169998,1548400,78.476357
"790",161.089996,161.639999,160,161.050003,1307000,78.41793
"791",161.5,162.259995,160.009995,160.440002,1263000,78.12091
"792",156.259995,165.639999,156.259995,162.759995,953600,79.250553
"793",162.490005,163.539993,160.449997,162.360001,998000,79.055789
"794",161.619995,162.539993,160.679993,161.889999,1447000,78.826938
"795",161.570007,161.649994,159.539993,161.419998,1322400,78.598087
"796",160.940002,161.929993,160.100006,161.089996,1053200,78.437403
"797",162.029999,162.720001,160.380005,161.830002,1592600,79.097246
"798",161.470001,162.729996,160.809998,161.690002,825800,79.028819
"799",161.020004,161.910004,160.270004,161.339996,1501200,78.857747
"800",160.869995,163.300003,160.410004,162.759995,1327800,79.551796
"801",162.960007,163.429993,161.960007,162.369995,1328600,79.361177
"802",161,161,158.289993,158.770004,1157400,77.601619
"803",158.059998,159.380005,157.570007,158.589996,1377800,77.513637
"804",158.149994,159.330002,156.520004,156.809998,1051600,76.643631
"805",156.949997,160.050003,156.809998,158.970001,1613600,77.699371
"806",158.809998,160.559998,157.800003,159.110001,887400,77.767798
"807",159.429993,160.479996,157.860001,160.149994,660600,78.276113
"808",160.460007,162.419998,158.690002,162.240005,1401800,79.297643
"809",162.639999,162.850006,159.759995,160.270004,858400,78.33477
"810",158.279999,159,157,157.759995,1072000,77.107959
"811",156.940002,157.699997,155.600006,155.759995,1638400,76.130424
"812",155.289993,157.240005,155.270004,156.190002,1412400,76.340598
"813",156.539993,157.25,155.699997,156.210007,748400,76.350375
"814",158.539993,159.919998,156.470001,157.210007,992200,76.839143
"815",156.899994,159.429993,156.350006,158.940002,1130200,77.684708
"816",158.850006,161.339996,158.339996,160.570007,639000,78.481402
"817",160.979996,161.179993,157.580002,159.25,1290200,77.836225
"818",159.539993,161.960007,159.539993,161.639999,834600,79.004379
"819",162.830002,163.710007,162.210007,163.710007,1240200,80.016131
"820",163.580002,164.710007,163.139999,164.419998,806000,80.363152
"821",164.190002,165.520004,162.309998,162.869995,891200,79.605561
"822",163.309998,163.979996,162.169998,162.440002,913800,79.395395
"823",165.199997,165.889999,164.350006,165.199997,858400,80.74439
"824",165.199997,165.529999,164.240005,165.360001,878400,80.822595
"825",164.649994,167.979996,163.619995,167.809998,1110400,82.020074
"826",167.789993,168.970001,167.199997,167.990005,920400,82.108056
"827",167.990005,172.210007,166.160004,166.279999,1415400,81.27226
"828",166.160004,166.160004,163.330002,163.419998,1876400,79.874385
"829",163.679993,165.179993,163.210007,163.470001,1591200,79.898825
"830",163.940002,165.339996,163.399994,164.639999,1779400,80.470682
"831",165.100006,166.960007,164.789993,166.649994,913600,81.453102
"832",165.440002,166.309998,164.880005,165.270004,1311200,80.778608
"833",163.779999,167.130005,163.520004,167.059998,1504800,81.653498
"834",167.130005,167.809998,166.100006,166.809998,1185800,81.531306
"835",165.529999,166.639999,164.860001,166.639999,1333800,81.448217
"836",166.190002,166.830002,165.059998,166.490005,1540800,81.374905
"837",166.139999,171,165.970001,170.899994,1846200,83.530364
"838",168.770004,170.199997,167.509995,167.910004,1843000,82.068954
"839",167.910004,168.009995,162.699997,162.809998,1740800,79.576236
"840",162.979996,164.220001,160.759995,162.479996,2231000,79.414942
"841",164.699997,165.949997,163.800003,164.729996,2301400,80.514669
"842",164.869995,166.789993,164.570007,166.75,1818600,81.501981
"843",165.460007,166.5,164.679993,166.130005,1238200,81.198948
"844",166.119995,166.630005,164.889999,165.479996,911600,80.881245
"845",167.199997,168.009995,165.559998,166.220001,1916000,81.242935
"846",169.75,174.740005,167.240005,174.470001,3069600,85.275267
"847",175.360001,176.580002,173.550003,175.770004,2707800,85.910666
"848",175.300003,177.020004,174.449997,176.610001,1685400,86.321229
"849",177.850006,180.729996,176.509995,180.119995,1819200,88.036801
"850",180.279999,180.440002,178.320007,178.449997,1435200,87.22056
"851",178.75,179.610001,177.949997,179.460007,723600,87.71422
"852",179.460007,181.949997,179.089996,181.919998,1139600,88.916584
"853",181.929993,182.070007,180.330002,180.889999,1001600,88.413154
"854",181.199997,185.679993,181.199997,185.509995,1654600,90.671257
"855",186.279999,187.279999,179.130005,181.660004,2376400,88.789507
"856",181.740005,184.570007,181.550003,182.580002,1835400,89.239172
"857",182.800003,183.389999,181.710007,182.75,1466600,89.322261
"858",183.5,183.600006,181.669998,183.460007,1215400,89.66929
"859",182.940002,184.460007,181.610001,183.320007,1102800,89.600863
"860",182.339996,184.839996,182.339996,182.800003,1724200,89.644994
"861",183.289993,184.320007,179.350006,179.639999,1768400,88.09533
"862",180,181.789993,179.380005,181.570007,2207200,89.041805
"863",181.729996,183.149994,181.580002,182.160004,1497200,89.331138
"864",182.179993,182.990005,181.380005,182.509995,1230400,89.502774
"865",181.679993,184.899994,181.570007,184.619995,1962000,90.537517
"866",185,185.610001,183.720001,185.580002,1034400,91.008303
"867",186.380005,186.889999,184.669998,184.899994,1367800,90.674828
"868",184.970001,185.539993,184.110001,184.649994,924800,90.552228
"869",184.229996,185.5,184.050003,184.759995,625600,90.606172
"870",184.649994,184.699997,181.800003,182.199997,1337400,89.350751
"871",183.309998,183.919998,182.449997,183.320007,1333000,89.900003
"872",183.589996,184.229996,182.550003,183.779999,1349200,90.125583
"873",183.820007,185.539993,183.820007,184.190002,974400,90.326648
"874",184.179993,185.990005,183.759995,185.130005,966400,90.787625
"875",185.199997,185.550003,184.059998,184.539993,909400,90.498284
"876",185,185.570007,183.75,184.059998,394400,90.262894
"877",184.339996,185.529999,183.350006,183.660004,1018400,90.066737
"878",182.320007,183.229996,180.320007,181.660004,1342800,89.085939
"879",181.710007,184.600006,181.710007,182.949997,1929600,89.718551
"880",182,183.289993,180.850006,181.779999,1156000,89.144784
"881",185,187.960007,182.960007,187.839996,1894400,92.116603
"882",188.190002,189,186.029999,186.710007,1417000,91.562457
"883",186.710007,188,185.910004,187.350006,1103600,91.876312
"884",187.089996,187.229996,181.490005,182.350006,2164000,89.424316
"885",182.220001,184.589996,182.050003,183.919998,1797800,90.194239
"886",183.929993,185.139999,182.289993,182.910004,1353400,89.698938
"887",182.910004,184.300003,181.5,182.399994,1908000,89.44883
"888",183.210007,184,181.910004,183.610001,1786800,90.042216
"889",183.759995,185.630005,180.899994,185.229996,1919000,90.83666
"890",184.860001,185.809998,184.350006,185.300003,1435200,90.870992
"891",185.020004,187.350006,184.770004,186.619995,4534400,91.518315
"892",187.399994,187.419998,185.080002,185.5,1373600,90.96907
"893",185.610001,187.600006,185.610001,187.580002,373000,91.989102
"894",187.839996,188.369995,187.25,188.080002,609800,92.234301
"895",188.580002,188.580002,187.25,187.779999,783000,92.08718
"896",187.820007,188.830002,187.100006,188.470001,1015200,92.425557
"897",188.770004,190.070007,188.259995,189.660004,1038800,93.009133
"898",189.5,190.289993,188.529999,188.940002,1368400,92.656045
"899",189.399994,190.100006,188.880005,189.410004,814200,92.886533
"900",189.630005,189.990005,186.929993,187.520004,1564800,91.959679
"901",187.600006,189.139999,186.020004,188.279999,2334800,92.33238
"902",188.550003,190.199997,187.410004,189.470001,2006600,92.915956
"903",189.710007,191.229996,189.25,190.130005,2366000,93.239622
"904",190.570007,191.539993,189.630005,190.580002,2090200,93.4603
"905",189.929993,191.350006,187.190002,187.759995,2609000,92.07737
"906",188.570007,191.009995,187.570007,190.889999,1919400,93.612322
"907",191.270004,191.550003,190.429993,190.699997,2111400,93.519145
"908",182.570007,189.889999,182.570007,187.669998,3294200,92.033236
"909",188.5,192.229996,188.5,189.479996,3656400,92.920857
"910",190.330002,191.539993,189.110001,190,2339600,93.175867
"911",190.149994,190.690002,186.589996,187.160004,2843800,91.783135
"912",186.710007,188.039993,185.770004,186.889999,2456200,91.650725
"913",185.229996,185.699997,181.589996,181.600006,2377200,89.056516
"914",182,184.490005,180.429993,183.190002,2781000,89.836249
"915",183.089996,184.660004,181.720001,182.429993,2033200,89.463541
"916",182.050003,184.869995,181.660004,183.199997,1591000,89.84115
"917",183.699997,185.649994,182.869995,184.669998,1190000,90.562038
"918",182.210007,184.5,181.429993,182.360001,2721200,89.429217
"919",182.509995,183.330002,176.669998,176.869995,2566800,86.736922
"920",177.729996,179.440002,176.800003,177.240005,1938000,86.918375
"921",175.889999,177.630005,173.830002,177.220001,2258600,86.908565
"922",177.429993,179.309998,176.820007,178.919998,1659000,87.742242
"923",180.600006,182.550003,180.5,182.539993,1596800,89.517485
"924",182.130005,184.910004,181.729996,183.929993,2010600,90.19914
"925",184.410004,186.619995,183.509995,185.160004,1992200,90.802336
"926",186.029999,187.070007,185.25,185.759995,1361800,91.096571
"927",185,187.839996,184.160004,187.229996,1374400,91.817459
"928",187.229996,189.479996,187.100006,188.899994,1415000,92.636425
"929",188.460007,188.5,186.220001,186.589996,2619800,91.503604
"930",185.649994,188.729996,185.589996,187.059998,1718000,92.034971
"931",187,188.880005,186.089996,188.75,1690800,92.866465
"932",188.770004,190.809998,188.699997,189.869995,2260000,93.417511
"933",189.490005,190.990005,188.5,188.520004,1695400,92.753305
"934",188.309998,192,188.300003,190.770004,1679200,93.860323
"935",190.399994,194.119995,190.25,193.130005,1781200,95.021462
"936",192.800003,194.669998,191.199997,193.690002,1586200,95.296985
"937",194.039993,198.149994,193.75,197.820007,2879800,97.328979
"938",193.229996,198.339996,193.229996,197.059998,1615400,96.955048
"939",199.75,200.410004,198.679993,200.190002,1354000,98.495035
"940",200,200.960007,199.110001,199.539993,1194200,98.175226
"941",199.759995,201.289993,199.449997,200.139999,979200,98.470433
"942",200.339996,201.240005,199.240005,200.070007,1540000,98.435997
"943",199.320007,200.830002,198.639999,200.300003,979200,98.549156
"944",201,201,197.449997,197.509995,1772000,97.17645
"945",197.210007,198.029999,196.199997,197.210007,1605600,97.028854
"946",198.229996,198.800003,194.509995,194.910004,1022400,95.897235
"947",194.589996,196.119995,194.25,194.580002,1214000,95.734871
"948",195.190002,197.190002,194.740005,195.960007,1668800,96.413844
"949",196.470001,198.809998,196.440002,197.960007,1223200,97.39786
"950",198.889999,199.220001,194.449997,195.160004,1495200,96.020237
"951",194.479996,196.130005,194.009995,194.740005,1833800,95.813594
"952",196.470001,198.139999,194.539993,195.119995,3024800,96.000552
"953",196.100006,196.399994,192.25,193.210007,1008800,95.060823
"954",194.139999,195.089996,192.410004,192.869995,1555400,94.893535
"955",193.410004,194,190.410004,190.410004,1492400,93.6832
"956",190.429993,190.960007,188.029999,189.529999,1201400,93.250231
"957",190.029999,191.710007,189.410004,190.809998,1012800,93.88
"958",192.720001,194.979996,192.009995,193.460007,1627800,95.183825
"959",195.080002,196.720001,193.380005,196.639999,1093600,96.748406
"960",196.169998,197.990005,195.460007,197.259995,1458200,97.053448
"961",197.25,200.050003,196.160004,197.369995,1224600,97.10757
"962",200.470001,201.589996,196.710007,197.759995,2836400,97.299452
"963",197.270004,197.740005,192.289993,193.070007,2327000,94.991942
"964",192.880005,194.130005,190.300003,192.5,1858600,94.711494
"965",192.690002,195.970001,191.710007,195.690002,1432000,96.281
"966",195.979996,196.190002,189.889999,189.960007,1847000,93.461798
"967",189.399994,190.770004,187.630005,187.820007,1373400,92.408901
"968",189.160004,189.699997,187.139999,188.559998,1304200,92.772982
"969",188.639999,189.160004,185.179993,188.529999,1875400,92.758223
"970",190,191.929993,188.490005,191.630005,2034400,94.28345
"971",199.990005,200,196.479996,199.460007,3588200,98.135872
"972",198.100006,199.419998,196.389999,196.539993,2523000,96.699202
"973",196.869995,197.990005,196.279999,196.360001,1778000,96.610644
"974",196.660004,198.119995,195.929993,196.300003,1542200,96.581125
"975",196.630005,196.940002,194.270004,194.509995,1536800,95.700427
"976",193.869995,194.300003,191.759995,192.979996,1429000,94.947656
"977",193.770004,194.570007,190.070007,191.470001,1583800,94.204727
"978",192.350006,193.449997,191.179993,193,987400,94.957498
"979",192.289993,194,192.259995,193.619995,1117400,95.262541
"980",193.149994,194.210007,192.25,192.639999,789000,94.780375
"981",192.410004,195.570007,192.179993,195.179993,1516200,96.030071
"982",194.860001,196.210007,193.589996,195.889999,888000,96.3794
"983",194.729996,196.490005,193.009995,195.470001,1240600,96.172758
"984",196.320007,198.899994,195,198.740005,1619800,97.781625
"985",197.619995,198.880005,194.970001,196.279999,1200800,96.897954
"986",196.25,196.839996,194.809998,196.619995,1005000,97.065801
"987",197.830002,199.649994,196.720001,199.410004,688800,98.44315
"988",199.300003,199.5,197.559998,197.729996,950000,97.613777
"989",197.589996,198.410004,196.330002,196.559998,866200,97.036181
"990",196.300003,196.449997,193,194.630005,933800,96.083398
"991",194.830002,195.580002,192.960007,195.360001,1471400,96.443776
"992",195.929993,198.470001,195.360001,196.039993,986400,96.77947
"993",196.279999,197.240005,195.520004,195.690002,1540400,96.606689
"994",196.020004,197.889999,195.720001,197.169998,1186400,97.337322
"995",197.009995,198.039993,196.300003,196.350006,691400,96.932515
"996",196.270004,199.029999,196.270004,198.860001,605200,98.171629
"997",199.5,199.710007,197.830002,198.119995,1357800,97.806309
"998",198.5,200.919998,197.949997,200.25,1453000,98.857833
"999",200.429993,201,198.020004,201,1044600,99.228087
"1000",200.929993,202.880005,200.139999,201.610001,1078200,99.529227
"1001",201.809998,203.050003,200.960007,202.330002,615400,99.884671
"1002",201.410004,202.300003,200.929993,201.720001,832200,99.583531
"1003",201.630005,204.75,200.070007,203.860001,1573600,100.639989
"1004",203.580002,203.789993,201.100006,203.149994,986200,100.289479
"1005",204.240005,205.800003,204.009995,204.929993,873600,101.168214
"1006",204.630005,205.649994,204.360001,205.110001,840400,101.257079
"1007",204.399994,205.889999,203.259995,205.800003,834400,101.597714
"1008",204.5,205.919998,204.289993,205.600006,763400,101.498981
"1009",205.369995,205.710007,203.350006,203.580002,1284000,100.501762
"1010",203.830002,204.75,203.210007,204.270004,504200,100.842396
"1011",203.75,204.25,201.809998,203.020004,861000,100.225306
"1012",202.520004,204.119995,202.050003,202.509995,725600,99.973529
"1013",202.25,204,201.270004,203.589996,1122800,100.506696
"1014",203.410004,204.050003,202.979996,203.220001,850200,100.324039
"1015",203.830002,205.460007,203.279999,204.570007,1507000,100.9905
"1016",204.880005,205.070007,203.699997,204.369995,599800,100.891759
"1017",203.600006,205.490005,202.520004,203.029999,1050800,100.23024
"1018",203.419998,205.850006,203.419998,204.470001,1229400,100.941129
"1019",204.729996,204.770004,201.910004,202.580002,955200,100.008089
"1020",201.610001,204.199997,201.600006,204.050003,1474000,100.733788
"1021",211.929993,213.009995,208.600006,210.149994,2919000,103.745183
"1022",210.220001,210.990005,208.830002,208.860001,1358600,103.108349
"1023",208.570007,209.479996,207.940002,208.309998,925600,102.836828
"1024",208.690002,210.360001,208.380005,210.160004,577200,103.750125
"1025",209,209.059998,207.309998,208.380005,1244000,102.871389
"1026",207.899994,208.860001,206.690002,206.800003,960000,102.091386
"1027",207.800003,208.100006,206.380005,207.820007,849400,102.594934
"1028",205.649994,207.809998,205,207.389999,1188000,102.382651
"1029",207.039993,208.199997,205.789993,208.029999,701000,102.698601
"1030",208.490005,208.940002,207.910004,207.990005,631200,102.678857
"1031",208.720001,209.490005,205.380005,205.559998,1512400,101.47923
"1032",206.75,207.190002,204.949997,205.789993,2035800,101.592773
"1033",205.020004,209.75,205.020004,207.699997,1891000,102.535688
"1034",208.199997,210.5,207.960007,209.550003,1398000,103.448984
"1035",208.589996,209.809998,208.220001,208.75,1377600,103.054045
"1036",209.279999,211.089996,208.949997,210.110001,1163000,103.72544
"1037",210.169998,211.660004,209.729996,210.309998,1485000,103.824172
"1038",210,211.320007,209.419998,210.020004,914600,103.681011
"1039",210,210.5,208.529999,208.869995,629400,103.113283
"1040",209.279999,209.639999,207.550003,208.669998,960000,103.014551
"1041",208.5,208.570007,204.910004,204.990005,1429800,101.197841
"1042",205.25,206.669998,203.600006,204.429993,1270400,100.921378
"1043",203.820007,203.820007,198.339996,198.360001,1586600,97.924793
"1044",196.979996,199.240005,196.5,198.389999,1409200,97.939602
"1045",198.110001,200.990005,198.110001,200.619995,991000,99.040489
"1046",199.259995,200.699997,197.679993,198.210007,1059400,97.850745
"1047",197.899994,199.809998,197.630005,198.889999,1186600,98.186438
"1048",199.630005,200,197,197.320007,1035600,97.740632
"1049",197.789993,200.380005,197.020004,200.220001,763400,99.177117
"1050",200.649994,201.110001,199.160004,199.179993,753800,98.661958
"1051",199.350006,199.990005,198.470001,199.529999,557800,98.83533
"1052",200.720001,202.110001,199.199997,202.009995,815600,100.063773
"1053",201.550003,202.100006,200.919998,201.570007,867400,99.84583
"1054",202.059998,203.770004,200.869995,202.270004,882200,100.192567
"1055",202.300003,203.929993,202.220001,203.770004,974400,100.935578
"1056",204.100006,205.289993,203.820007,204.630005,814600,101.361571
"1057",204,204.740005,203.190002,204.080002,939800,101.089132
"1058",204.699997,206,204.080002,205.080002,929000,101.584473
"1059",205.100006,205.449997,204.429993,204.550003,644800,101.321943
"1060",205.110001,206.360001,204.919998,206.229996,921000,102.154111
"1061",206.850006,206.850006,205.550003,206.460007,871600,102.268045
"1062",206.110001,206.649994,204.570007,205.240005,859000,101.663729
"1063",204.690002,206.119995,204.360001,205.440002,758000,101.762796
"1064",205.940002,206.199997,205.210007,205.860001,777000,101.970838
"1065",206.389999,206.539993,204.570007,205.190002,858000,101.63896
"1066",205.729996,206.119995,203.300003,203.529999,1174400,100.816693
"1067",203.830002,205.009995,203.220001,203.619995,799000,100.861272
"1068",203.75,204.009995,202.949997,203.960007,1059200,101.029694
"1069",203.710007,205.369995,203.229996,203.919998,656000,101.009876
"1070",204.119995,204.289993,201.110001,201.460007,836800,99.791342
"1071",201.179993,202.649994,200.119995,202.460007,804200,100.286682
"1072",200.990005,202.130005,200.449997,201.419998,900800,99.771524
"1073",201.320007,201.779999,198.949997,199.679993,949800,98.909628
"1074",199.759995,200.389999,198.479996,199.710007,992600,98.924496
"1075",199.380005,201.869995,198.529999,200.520004,1623600,99.32572
"1076",201.460007,202.899994,200.830002,201.830002,1358600,99.974615
"1077",202.210007,204.039993,201.889999,203.160004,1057600,100.633419
"1078",203.960007,205.160004,202.779999,202.809998,1459000,100.460047
"1079",202.960007,203.460007,199.520004,199.679993,1357000,98.909628
"1080",199.240005,199.929993,198.089996,198.279999,1344200,98.216154
"1081",198.699997,200.830002,198.479996,200.539993,1175600,99.335622
"1082",199.389999,199.619995,197.410004,197.410004,1002600,97.78521
"1083",197.119995,198.699997,197,198.449997,766800,98.300361
"1084",197.279999,199.889999,196.729996,199.460007,1099400,98.80066
"1085",199.080002,199.380005,196.380005,196.740005,1598800,97.453333
"1086",196.5,196.5,189.669998,191.169998,3029000,94.694282
"1087",190.869995,191.899994,187.889999,191.169998,1724800,94.694282
"1088",192.029999,193.660004,190.729996,191.850006,1442600,95.031117
"1089",193.539993,193.539993,190.559998,191.270004,939400,94.743819
"1090",190.389999,190.389999,186.330002,186.419998,2348000,92.341413
"1091",186.449997,189.759995,185.080002,189.529999,2850200,93.881923
"1092",189.990005,190.259995,185.610001,186.029999,2205000,92.148231
"1093",185.779999,187.410004,183.460007,183.550003,2004000,90.919788
"1094",183.289993,183.990005,176.179993,176.589996,2501000,87.472213
"1095",177.119995,179.960007,175.419998,177.580002,2546000,87.962603
"1096",175.369995,181.139999,173.009995,180.5,3388200,89.408997
"1097",173.899994,183.5,171.559998,181.830002,4098600,90.067801
"1098",184.639999,188.369995,183.649994,187.25,3454600,92.752547
"1099",187.779999,191.270004,186.770004,191.179993,2413200,94.699232
"1100",191.949997,196.279999,191.949997,196.039993,2398800,97.106588
"1101",197.259995,198.5,193.300003,193.710007,2937400,95.952451
"1102",195.970001,196.570007,194.110001,194.899994,1712000,96.5419
"1103",194.860001,196.110001,192.619995,195.850006,1615000,97.01248
"1104",193.160004,193.839996,191.199997,192.600006,2100200,95.402623
"1105",194.770004,196.860001,193.960007,195.389999,2245800,96.78462
"1106",195.009995,195.429993,190.779999,192.050003,3746800,95.130184
"1107",191.339996,193.440002,190.779999,192.350006,1368200,95.278788
"1108",194.789993,204.5,193.550003,203.690002,5398200,100.895949
"1109",204.050003,204.779999,199.880005,200.369995,2409200,99.251415
"1110",200.25,200.789993,197.270004,198.470001,1712600,98.31027
"1111",200.419998,205.460007,199.649994,205.25,2963400,101.66868
"1112",205,206.259995,203.160004,206.089996,1990200,102.419096
"1113",203.059998,207.490005,203.059998,206.899994,1819400,102.821634
"1114",206.570007,207.330002,205.339996,206.270004,1232000,102.508553
"1115",206.25,207.009995,204.710007,205.259995,1409600,102.006615
"1116",205.240005,205.589996,203.160004,203.899994,2076600,101.330745
"1117",204.229996,206.990005,203.009995,205.229996,1980000,101.991707
"1118",205.110001,206.350006,203.470001,203.899994,1606400,101.330745
"1119",204,206.369995,203.410004,205.330002,1093200,102.041406
"1120",204.949997,208.75,204.350006,208.5,1803000,103.616778
"1121",208.690002,211.080002,208.020004,210.660004,2718600,104.69022
"1122",209.839996,212.880005,209.610001,212.660004,1405800,105.684146
"1123",215.039993,217.729996,213.699997,215.350006,2580800,107.020977
"1124",215.600006,216.539993,214.449997,215.570007,2368000,107.13031
"1125",215.179993,217.440002,215.179993,215.399994,1364000,107.04582
"1126",215.149994,217.130005,214.550003,216.949997,909200,107.816114
"1127",218.300003,219.539993,216.479996,218.820007,1286400,108.74544
"1128",217.460007,220.779999,216.789993,219.869995,3195800,109.267245
"1129",221.210007,222.240005,217.949997,219.130005,1815200,108.899497
"1130",219.600006,223.630005,219.130005,223.259995,1591600,110.951949
"1131",223.110001,225.169998,222.460007,223.710007,2052800,111.175588
"1132",223.899994,225.449997,222.449997,222.850006,1527800,110.7482
"1133",222.399994,223.949997,221.669998,222.839996,1805200,110.743225
"1134",221.009995,225.789993,221.009995,225.690002,1781200,112.159573
"1135",225.610001,225.610001,220.479996,220.850006,1528000,109.754274
"1136",220.860001,224.309998,220.470001,222.600006,1498800,110.623959
"1137",221.639999,222.410004,219.759995,219.820007,2742000,109.242403
"1138",221.020004,222.470001,216.229996,218.110001,2577400,108.392592
"1139",216.289993,221.330002,216.039993,216.660004,1945000,107.671998
"1140",217.089996,223.039993,216.690002,222.259995,1943000,110.454986
"1141",224.429993,227.100006,222.910004,227.009995,1510200,112.81556
"1142",228.080002,229.600006,227.009995,227.899994,2125800,113.257857
"1143",228.639999,230.029999,227.330002,229.600006,1643600,114.1027
"1144",230.179993,232.160004,230,231.070007,1018800,114.833236
"1145",231.5,231.839996,230.380005,231.119995,541600,114.858078
"1146",231.380005,232.789993,230.589996,231.589996,605000,115.091651
"1147",230.910004,233.160004,230.610001,232.460007,868600,115.524014
"1148",231.529999,232.610001,231.130005,231.660004,843200,115.126442
"1149",232.25,233.669998,231.020004,231.149994,1267200,114.872986
"1150",231.149994,232.339996,227.589996,229.399994,888600,114.003301
"1151",227.059998,227.75,222.589996,223.479996,1931800,111.061281
"1152",224.710007,225.300003,219.809998,222.929993,1710600,110.78795
"1153",222.979996,224.699997,221.389999,223.919998,2366400,111.279946
"1154",226.240005,230.690002,224.929993,229.880005,2075800,114.241849
"1155",230.229996,230.770004,225.75,226.970001,1599000,112.795685
"1156",227,228.050003,224.830002,226.25,1438800,112.437871
"1157",227.410004,230.240005,224.470001,226.990005,1656400,112.805626
"1158",224.320007,227.039993,222.529999,226.970001,2555800,112.795685
"1159",226.970001,233.979996,224.770004,226.199997,3105000,112.413021
"1160",226.070007,230.899994,225.059998,230.380005,1886400,114.49033
"1161",231.089996,232,226.160004,228.160004,2082000,113.387072
"1162",227.470001,229.619995,226.210007,228.029999,1469000,113.322464
"1163",228.710007,231.960007,226.309998,231.350006,1175400,114.972385
"1164",231,231,227.770004,227.809998,952200,113.213132
"1165",227.100006,228.149994,225.210007,227.820007,1002200,113.218106
"1166",226,228.029999,224.259995,225.960007,1246400,112.293755
"1167",226.130005,227.710007,221.240005,221.740005,1411200,110.19657
"1168",222,226.070007,220.309998,225.710007,1528800,112.169514
"1169",222.740005,226.059998,222.740005,222.880005,2708400,110.763108
"1170",221.25,224.240005,219.880005,223.729996,1589600,111.185522
"1171",226.429993,227.75,223.839996,226.899994,1328000,112.760894
"1172",226.600006,228.940002,225.009995,227.449997,1100000,113.034225
"1173",228.960007,231.229996,227.830002,230.369995,1352800,114.485356
"1174",230.179993,232,229.110001,230.860001,1136800,114.72887
"1175",230.360001,230.860001,226.179993,226.820007,1741800,112.721143
"1176",229.179993,229.449997,225.899994,228.240005,1005000,113.42683
"1177",227.919998,229.199997,226.910004,228.220001,776000,113.416888
"1178",230.259995,233.589996,229.119995,233.029999,1624800,115.807279
"1179",233.690002,236.850006,233.100006,236.770004,1251200,117.665923
"1180",234.300003,236.979996,233.509995,235.850006,1739200,117.208718
"1181",234.300003,236.380005,233.229996,236.240005,1144000,117.737
"1182",234.479996,237.139999,234.020004,235.5,948800,117.368196
"1183",234.630005,237.199997,232.100006,236.639999,1347400,117.936348
"1184",235.210007,237.100006,234.820007,236.490005,1347600,117.861594
"1185",236.850006,237.199997,235.509995,236.770004,994800,118.00114
"1186",236,237.410004,235.169998,235.669998,1086200,117.45292
"1187",235.240005,236.809998,234.660004,235.839996,967600,117.537643
"1188",235.869995,236.960007,234.100006,235.380005,1394800,117.308393
"1189",235.380005,237.75,235.380005,237.699997,1454800,118.464628
"1190",236.889999,236.979996,233.830002,234.539993,1237600,116.88975
"1191",233.119995,237.899994,232.210007,235.339996,1687000,117.288454
"1192",235.830002,236.270004,234.119995,235.449997,974400,117.343276
"1193",233.369995,234.770004,231.649994,231.970001,1090000,115.60892
"1194",232.440002,233.720001,231.520004,232.289993,1418600,115.768397
"1195",229.929993,230.119995,227.639999,227.669998,1606800,113.46589
"1196",227.820007,228.149994,225.009995,225.179993,1594200,112.224924
"1197",225.389999,229.830002,225.110001,229.699997,986400,114.477598
"1198",228.710007,229.490005,226.339996,227.910004,1181600,113.585504
"1199",228.740005,230.25,228.029999,230.080002,1091200,114.666985
"1200",228.470001,229.539993,226.130005,227.259995,1116200,113.261553
"1201",225.910004,232.160004,223,229.639999,2110200,114.447697
"1202",228.169998,228.970001,225.850006,226.169998,1015800,112.718322
"1203",227.339996,230.25,225.779999,229.059998,1555000,114.158636
"1204",228.729996,229.820007,226.419998,226.429993,1290200,112.847898
"1205",226.389999,227.869995,225.490005,225.490005,1172800,112.379428
"1206",225.789993,227.029999,222.279999,222.460007,1306800,110.869341
"1207",220.589996,222.5,220.050003,221.300003,1125200,110.29122
"1208",222.020004,224,220.929993,222.960007,1222800,111.11853
"1209",224.300003,226.050003,223.149994,224.490005,1265200,111.881049
"1210",222.929993,226.399994,222.160004,225.539993,1837000,112.404341
"1211",225.350006,225.960007,222.350006,224.460007,1623600,111.866098
"1212",223.419998,225.270004,222.929993,223.580002,1421000,111.427523
"1213",222.660004,224.970001,222,224.220001,1100600,111.746485
"1214",224.039993,226.330002,223.410004,224.899994,1187400,112.085379
"1215",224.320007,226.660004,224.320007,226.130005,1620000,112.69839
"1216",226.369995,228.520004,225.419998,228.339996,1177200,113.799803
"1217",229,229.899994,227.029999,229.5,1408600,114.377924
"1218",229.350006,230.75,228.419998,229.589996,1344600,114.422776
"1219",229.410004,229.720001,226.919998,227.960007,1281200,113.610424
"1220",228.740005,229.089996,226.520004,227.270004,1849800,113.266541
"1221",233.029999,233.110001,226.570007,226.75,2492600,113.007382
"1222",225.130005,228.009995,224.350006,226.610001,2211800,112.93761
"1223",228.039993,228.940002,225.470001,227.679993,1912000,113.470871
"1224",228.210007,228.279999,225.570007,227.050003,1181400,113.156898
"1225",227.160004,228.399994,225.490005,226.399994,872200,112.832947
"1226",226.080002,226.860001,225.369995,225.880005,854600,112.573795
"1227",225.869995,226.809998,222.5,223.309998,1729600,111.292958
"1228",223.460007,223.960007,220.380005,220.850006,2169400,110.066951
"1229",220.529999,221.339996,218.600006,220.759995,1957200,110.022091
"1230",219.699997,222.330002,219.130005,222.169998,1753400,110.724807
"1231",220.479996,223.169998,220.020004,221.559998,2217800,110.420795
"1232",221.729996,224.809998,221.160004,224.550003,1515600,111.910951
"1233",224.880005,226,224.570007,225.029999,1090800,112.15017
"1234",226.5,226.979996,221.410004,221.580002,1420800,110.430765
"1235",222.660004,222.800003,220.660004,222.050003,1411400,110.665004
"1236",221.5,225.759995,220.679993,224.910004,2165000,112.455002
"1237",227.779999,230.520004,226.800003,229.050003,1585200,114.525002
"1238",228.529999,230.179993,227.210007,227.330002,1722000,113.665001
"1239",226.509995,227.320007,224.419998,224.490005,1247600,112.245003
"1240",224.509995,225.800003,222.5,225.399994,1544600,112.699997
"1241",227.229996,229,226,228.800003,1527400,114.400002
"1242",228.679993,231.779999,227.839996,231.699997,1263000,115.849998
"1243",231.699997,231.699997,229.5,230.929993,1842600,115.464996
"1244",230.880005,231.910004,229.389999,229.990005,1481600,114.995003
"1245",230,230.779999,228.229996,228.929993,1284800,114.464996
"1246",228.320007,230.229996,228.240005,229.229996,664400,114.614998
"1247",228.639999,230.320007,228.639999,229.190002,742800,114.595001
"1248",228.419998,229.179993,225.75,226.720001,1470800,113.360001
"1249",227.520004,229.649994,227.220001,229.139999,1433800,114.57
"1250",228.289993,230.130005,227.350006,229.820007,1230800,114.910004
"1251",229.270004,230.320007,228.039993,228.889999,1199800,114.445
"1252",228.169998,230.259995,227.279999,229.029999,903400,114.514999
"1253",228.669998,229.910004,227.009995,228.25,768600,114.125
"1254",229.330002,230.100006,228.020004,229.990005,1114000,114.995003
"1255",228.929993,230.25,228.240005,228.770004,1406600,114.385002
"1256",227.919998,229.160004,226.470001,228.630005,1045800,114.315002
"1257",228.410004,228.570007,227.210007,228.100006,1051000,114.050003
"1258",228.479996,230.289993,227.600006,229.25,1070600,114.625
"1259",230.429993,232.990005,230.009995,231.880005,1979400,115.940002
