"","% change","variation","adjusted","ticker"
"1",0,2.94999700000001,52.739728,"EOG"
"2",1.00211931316748,1.870003,53.268243,"EOG"
"3",-0.828330305544339,-1.99000500000001,52.827006,"EOG"
"4",1.29417518002062,-0.25,53.51068,"EOG"
"5",0.0271814897512015,0.949996999999996,53.525225,"EOG"
"6",-0.298941293567663,-0.360000000000014,53.365216,"EOG"
"7",0.145379342229228,0.220000999999996,53.442798,"EOG"
"8",0.353836264336303,-1.389999,53.631898,"EOG"
"9",-3.76096516293345,-4.160004,51.614821,"EOG"
"10",0.366369574351524,0.269996000000006,51.803922,"EOG"
"11",-2.10595444877706,-1.23000399999999,50.712955,"EOG"
"12",4.96223696686577,3.540001,53.229452,"EOG"
"13",-3.97157949324746,-3.520004,51.115402,"EOG"
"14",-4.91367944245064,-3.09000399999999,48.603755,"EOG"
"15",-1.8655184151924,-1.889999,47.697043,"EOG"
"16",0.721763820872498,0.56000499999999,48.041303,"EOG"
"17",-0.746876078694204,-0.350006000000008,47.682494,"EOG"
"18",1.5354901528431,-0.489998,48.414654,"EOG"
"19",3.9559386296554,3.68000000000001,50.329908,"EOG"
"20",2.33140501667516,1.34000399999999,51.503302,"EOG"
"21",-0.61193940536084,-0.31999900000001,51.188133,"EOG"
"22",-0.028414789029321,0.239998,51.173588,"EOG"
"23",1.20333168743219,-0.180000000000007,51.789376,"EOG"
"24",-0.0140588679809523,0.529998000000006,51.782095,"EOG"
"25",-0.421977905683417,-0.809997999999993,51.563586,"EOG"
"26",-3.68208293348721,-2.84000399999999,49.664972,"EOG"
"27",-0.263976792335654,-0.669998000000007,49.533868,"EOG"
"28",2.09783132623522,3.669999,50.573005,"EOG"
"29",-1.66106799467423,-2.110001,49.732953,"EOG"
"30",0.761569496989252,-0.650001000000003,50.111704,"EOG"
"31",-0.843018628941459,-0.45999900000001,49.689253,"EOG"
"32",1.35834805164006,1.510002,50.364206,"EOG"
"33",-3.04666770682337,-3.300003,48.829776,"EOG"
"34",0,-0.370002000000014,48.829776,"EOG"
"35",0.0198935993480604,-1.150001,48.83949,"EOG"
"36",-3.06224123142972,-2.08000199999999,47.343907,"EOG"
"37",5.13846480815366,3.20000400000001,49.776657,"EOG"
"38",-0.79017158584997,-0.600006000000008,49.383336,"EOG"
"39",1.27827127758238,0.940002000000007,50.014589,"EOG"
"40",-0.543685363484649,0.190002000000007,49.742667,"EOG"
"41",-3.10425655303122,2.810005,48.198527,"EOG"
"42",0.685068653654086,-0.229996,48.52872,"EOG"
"43",0.760450718667211,1.89999399999999,48.897757,"EOG"
"44",-3.52531712241934,-1.439994,47.173956,"EOG"
"45",-1.84251242359237,-0.0299980000000062,46.30477,"EOG"
"46",-1.24790599327023,-1.13999999999999,45.72693,"EOG"
"47",-0.0849543146675363,0.599997999999999,45.688083,"EOG"
"48",1.13721558420388,0.0900040000000075,46.207655,"EOG"
"49",-1.90206362993319,-1.419999,45.328756,"EOG"
"50",-1.96036705706197,-1.470001,44.440146,"EOG"
"51",-0.109263817450094,0.159996000000007,44.391589,"EOG"
"52",0.339100274153282,0.100005999999993,44.542121,"EOG"
"53",-3.40129065699409,-1.69000200000001,43.027114,"EOG"
"54",-1.2978235072889,-0.450005000000004,42.468698,"EOG"
"55",-0.960434435734297,-1.459999,42.060814,"EOG"
"56",3.20941957994441,1.849999,43.410722,"EOG"
"57",-2.0581689472937,-1.68000000000001,42.517256,"EOG"
"58",-0.788025925285496,-0.279999000000004,42.182209,"EOG"
"59",3.53401596393399,1.660003,43.672935,"EOG"
"60",-0.500339626819222,-0.590003999999993,43.454422,"EOG"
"61",0.938657060034074,0,43.86231,"EOG"
"62",-1.79342583644136,-0.550003000000004,43.075672,"EOG"
"63",1.75853553718211,1.54999600000001,43.833173,"EOG"
"64",-0.997002886375581,-2.06999900000001,43.396155,"EOG"
"65",3.16660542852241,2.579994,44.77034,"EOG"
"66",0.0976181999064678,-0.860000999999997,44.814044,"EOG"
"67",-0.0975229997096564,0.329993999999999,44.77034,"EOG"
"68",-0.672447428364404,-0.159996000000007,44.469283,"EOG"
"69",-0.633327054092594,-1.19000200000001,44.187647,"EOG"
"70",-2.07692208639216,-1.970001,43.269904,"EOG"
"71",-1.54864452668996,-1.68999500000001,42.599807,"EOG"
"72",2.1543360513347,1.620003,43.51755,"EOG"
"73",0.825705950817545,0.660004000000001,43.876877,"EOG"
"74",-0.763614055758805,0.369995000000003,43.541827,"EOG"
"75",2.72108931028549,0.970001999999994,44.726639,"EOG"
"76",-0.933665058087644,-0.989998,44.309042,"EOG"
"77",0.580820501603265,0.419998000000007,44.566398,"EOG"
"78",2.22270599477212,2.80999799999999,45.556978,"EOG"
"79",-0.905988540328562,-1.510002,45.144237,"EOG"
"80",3.44196757606071,2.05999700000001,46.698087,"EOG"
"81",-0.46791852522782,0.349997999999999,46.479578,"EOG"
"82",1.68199031411173,0.569999999999993,47.26136,"EOG"
"83",1.22263938236225,1.25,47.839196,"EOG"
"84",0.0406005987224288,-0.450004000000007,47.858619,"EOG"
"85",0.913152132534384,0.779998999999989,48.295641,"EOG"
"86",0.1005411647813,0.559997999999993,48.344198,"EOG"
"87",-0.652866348098281,0.0300069999999977,48.028575,"EOG"
"88",-0.00506781639887053,-0.959998999999996,48.026141,"EOG"
"89",0.263294108931214,1.139999,48.152591,"EOG"
"90",1.04029708390977,0.340004000000008,48.653521,"EOG"
"91",1.28948529747724,1.459999,49.280901,"EOG"
"92",-1.82571540240305,-0.299996000000007,48.381172,"EOG"
"93",0.643343241044259,0.560005000000004,48.692429,"EOG"
"94",-1.31841646264966,-1.64999399999999,48.05046,"EOG"
"95",-1.50810210765933,-2.160003,47.32581,"EOG"
"96",0.154146331568342,-0.570000000000007,47.398761,"EOG"
"97",-1.75456485033438,-1.110001,46.567119,"EOG"
"98",0.010447285776907,0.840003999999993,46.571984,"EOG"
"99",-0.856306658526731,-1.449997,46.173185,"EOG"
"100",0.821569922022925,1.20000399999999,46.55253,"EOG"
"101",0.365647151723022,-0.80999700000001,46.722748,"EOG"
"102",1.73831385088908,0.569999999999993,47.534936,"EOG"
"103",-9.31041329265701,-1.849999,43.109237,"EOG"
"104",-0.394855051598345,-1.470001,42.939018,"EOG"
"105",0.362441917046181,-0.0500030000000038,43.094647,"EOG"
"106",0.95925835057889,0.25,43.508036,"EOG"
"107",2.82807755330534,1.849999,44.738477,"EOG"
"108",2.05457150452393,1.469993,45.657661,"EOG"
"109",0.244997219634182,0.890000000000001,45.769521,"EOG"
"110",-2.18892611963319,-1.05999799999999,44.76766,"EOG"
"111",0.412815858590786,-1.06999999999999,44.952468,"EOG"
"112",-1.49301702411534,-0.369995000000003,44.28132,"EOG"
"113",-0.96650912845416,-1.110001,43.853337,"EOG"
"114",2.15149647562738,1.599999,44.79684,"EOG"
"115",0.922806162220366,1.309997,45.210228,"EOG"
"116",-0.494834929830487,-0.190002000000007,44.986512,"EOG"
"117",-4.10811133790501,-2.450005,43.138416,"EOG"
"118",1.24014289259022,0.5,43.673394,"EOG"
"119",-0.979960476623365,-0.0500029999999896,43.245412,"EOG"
"120",0.337383766860626,0.580001999999993,43.391315,"EOG"
"121",-0.302627380617518,0.529998999999989,43.260001,"EOG"
"122",3.01292873294201,1.139999,44.563394,"EOG"
"123",2.43370601440276,2.33000199999999,45.647936,"EOG"
"124",-0.127852440031467,0.279999000000004,45.589574,"EOG"
"125",0.682737241633356,0.829993999999999,45.900831,"EOG"
"126",-1.7694407319118,-2.84000400000001,45.088643,"EOG"
"127",-0.55010526708465,-0.970001000000011,44.840608,"EOG"
"128",0.0325463918776376,-0.119995000000003,44.855202,"EOG"
"129",-1.60468790219694,-1.18000000000001,44.135416,"EOG"
"130",-0.0551008740916783,-0.800003000000004,44.111097,"EOG"
"131",1.04741444086054,0.830002000000007,44.573123,"EOG"
"132",-1.66939166456881,-1.229995,43.829023,"EOG"
"133",0.432754341797675,0.340003999999993,44.018695,"EOG"
"134",1.28162136564929,1.25999400000001,44.582848,"EOG"
"135",-0.22908137228021,-0.410004000000001,44.480717,"EOG"
"136",0.207743953407954,-0.0800009999999958,44.573123,"EOG"
"137",0.600103789003074,0.289992999999996,44.840608,"EOG"
"138",-0.813447935407125,0.860000999999997,44.475853,"EOG"
"139",-1.45433972902105,-1.129997,43.829023,"EOG"
"140",-0.155349116497523,-0.529999000000004,43.760935,"EOG"
"141",1.34474274829822,0.720001000000011,44.349407,"EOG"
"142",0.614100657535292,0.529999000000004,44.621757,"EOG"
"143",-0.370568106495674,-0.239998,44.456403,"EOG"
"144",1.02832656074311,-0.0999989999999968,44.91356,"EOG"
"145",-0.227394577495082,-0.94000299999999,44.811429,"EOG"
"146",0.206210786092102,1.06999999999999,44.903835,"EOG"
"147",0.530703001202462,-0.529998000000006,45.142141,"EOG"
"148",1.55139296561055,1,45.842473,"EOG"
"149",0.732011119906204,0.799994999999996,46.178045,"EOG"
"150",1.87467875697207,1.29000099999999,47.043735,"EOG"
"151",1.98290590659947,1,47.976568,"EOG"
"152",-0.639656008741603,-0.370001999999999,47.669683,"EOG"
"153",2.77948355561751,2.77999899999999,48.994654,"EOG"
"154",2.28673111968502,2.04999500000001,50.11503,"EOG"
"155",-1.39968388724899,-1.40999599999999,49.413578,"EOG"
"156",-0.0788649629864874,1.58000199999999,49.374608,"EOG"
"157",0.355170414720041,-0.269997000000004,49.549972,"EOG"
"158",0.00983249798810377,0.380004999999997,49.554844,"EOG"
"159",-1.8283701992887,-1.709999,48.648798,"EOG"
"160",2.41313259168295,1.900002,49.822758,"EOG"
"161",0.948377847729742,1.339996,50.295266,"EOG"
"162",-0.697336007726849,-0.840003999999993,49.944539,"EOG"
"163",3.76475193814483,3.650001,51.824827,"EOG"
"164",0.930536632568022,0.659996000000007,52.307076,"EOG"
"165",-0.130378153808492,0.229996,52.238879,"EOG"
"166",-0.177166895177815,0.160004000000001,52.146329,"EOG"
"167",-0.252222932126255,-0.520004,52.014804,"EOG"
"168",-1.11444426475201,-1.770005,51.435128,"EOG"
"169",-0.786052287067305,-1.05999799999999,51.030821,"EOG"
"170",-0.773201356098124,-0.350006000000008,50.63625,"EOG"
"171",0.278979979757593,0.769997000000004,50.777515,"EOG"
"172",-0.90175937124927,-0.529998999999989,50.319624,"EOG"
"173",1.54888478498966,1.550004,51.099017,"EOG"
"174",-1.28693865089421,-1.239998,50.441404,"EOG"
"175",-0.540805723805786,-1.08000199999999,50.168614,"EOG"
"176",1.19429450452827,0.940001999999993,50.767775,"EOG"
"177",4.48090348651286,2.050003,53.04263,"EOG"
"178",-0.523463862934398,-1.540001,52.764971,"EOG"
"179",5.60376693848652,5.879997,55.721797,"EOG"
"180",-3.68913622796479,-4.41999799999999,53.666144,"EOG"
"181",1.43414999221855,1.050003,54.435797,"EOG"
"182",0.501116939649108,0.220001999999994,54.708584,"EOG"
"183",-3.89991815543975,-1.56999999999999,52.574994,"EOG"
"184",0.704161754160175,2.84000400000001,52.945207,"EOG"
"185",2.20810922507111,1.77999800000001,54.114295,"EOG"
"186",-1.53929197451431,-1.43000099999999,53.281318,"EOG"
"187",-0.731391441930915,-1.65999600000001,52.891623,"EOG"
"188",-2.1919350064187,-2.34000400000001,51.732273,"EOG"
"189",-0.376643029004348,-0.339995999999999,51.537427,"EOG"
"190",-2.80718515497485,-1.69999700000001,50.090676,"EOG"
"191",2.74239061976324,3.040001,51.464358,"EOG"
"192",0.832935679485213,1.45999900000001,51.893023,"EOG"
"193",-1.02318186396657,2.160003,51.362063,"EOG"
"194",-0.900989899879994,-1.310005,50.899296,"EOG"
"195",4.00995526539306,1.910003,52.940335,"EOG"
"196",-0.690099524304107,-1.83000199999999,52.574994,"EOG"
"197",3.21504744251612,1.910004,54.265305,"EOG"
"198",1.75942436884857,1.020005,55.220062,"EOG"
"199",0.62632309250215,0.639999999999986,55.565918,"EOG"
"200",1.29745179410155,0.639999000000003,56.286859,"EOG"
"201",1.72219593919781,1.72000100000001,57.256229,"EOG"
"202",0.765698348733383,1.670005,57.694639,"EOG"
"203",1.03849683503522,2.15999600000001,58.293796,"EOG"
"204",-0.401099286792024,-1.110001,58.05998,"EOG"
"205",-0.570518625738418,-0.729996,57.728737,"EOG"
"206",-0.101259793714177,-0.779999000000004,57.670281,"EOG"
"207",-0.0168891148631663,-0.529999000000004,57.660541,"EOG"
"208",-1.22497636642015,-1.120003,56.954213,"EOG"
"209",-1.80465315182216,-2.920005,55.926387,"EOG"
"210",-0.130646737469376,0.130004999999997,55.853321,"EOG"
"211",0,-0.799994999999996,55.853321,"EOG"
"212",-1.73557092513801,-1.88999999999999,54.883947,"EOG"
"213",-3.05315869501878,-2.29999600000001,53.208253,"EOG"
"214",1.41193322020929,0.520004999999998,53.959518,"EOG"
"215",0.0994486273950699,1.020004,54.01318,"EOG"
"216",0.289016495603478,0.190003000000004,54.169287,"EOG"
"217",-1.05367272048457,0.160004000000001,53.59852,"EOG"
"218",-0.364067888441697,-0.440003000000004,53.403385,"EOG"
"219",2.14670474540144,0.489998,54.549798,"EOG"
"220",0.0447187723774776,0.540001000000004,54.574192,"EOG"
"221",-1.36766477458795,-1.650002,53.8278,"EOG"
"222",1.25068459049041,0.980002999999996,54.501016,"EOG"
"223",0.0358030022779822,-0.25,54.520529,"EOG"
"224",0.196852455338421,0.370001999999999,54.627854,"EOG"
"225",0.955527193142171,1.200005,55.149838,"EOG"
"226",-1.86643159314449,-2.54000099999999,54.120504,"EOG"
"227",-2.51487310613367,-2.54000000000001,52.759442,"EOG"
"228",-1.72908197171607,-1.480003,51.847188,"EOG"
"229",-1.81595962349974,0.0899959999999993,50.905664,"EOG"
"230",2.96119308059709,-1.55999799999999,52.413079,"EOG"
"231",3.61131617549123,1.089997,54.305881,"EOG"
"232",-0.422208416064551,-0.570000000000007,54.076597,"EOG"
"233",-3.75281565886996,-3.75999499999999,52.047202,"EOG"
"234",-1.09664108360715,0.0599980000000073,51.476431,"EOG"
"235",-0.075809451513835,-0.379997999999986,51.437407,"EOG"
"236",-0.701825813264657,-0.470001000000011,51.076406,"EOG"
"237",0.869154732617642,1.48000399999999,51.520339,"EOG"
"238",0.95635046190204,0.730003999999994,52.013054,"EOG"
"239",-0.590888202796165,-0.980002999999996,51.705715,"EOG"
"240",0.811397734273668,0.779998000000006,52.125254,"EOG"
"241",-2.43331572062939,-0.849997999999999,50.856882,"EOG"
"242",1.73620750088454,0.889999999999986,51.739863,"EOG"
"243",1.07486368875774,1.699997,52.295996,"EOG"
"244",0.0279906706433088,0.530006,52.310634,"EOG"
"245",0.857967043565176,0.270004999999998,52.759442,"EOG"
"246",0.915392547176677,-0.870002999999997,53.242398,"EOG"
"247",-0.870437879225501,-1.31999999999999,52.778956,"EOG"
"248",2.51409671688088,2.5,54.10587,"EOG"
"249",-0.315577588901169,1.20999999999999,53.935124,"EOG"
"250",-1.35672813137503,-1.48000300000001,53.203371,"EOG"
"251",-0.926091694452965,-1.459999,52.710659,"EOG"
"252",0.823692983993994,0.81999900000001,53.144833,"EOG"
"253",1.68899956840583,1.22000100000001,54.042449,"EOG"
"254",-2.807367223495,-2.33000199999999,52.525279,"EOG"
"255",-2.74913913355891,-3.279999,51.081286,"EOG"
"256",0.305605070318705,-1.230003,51.237393,"EOG"
"257",-2.05655076947416,-1.279999,50.18367,"EOG"
"258",-1.22485063368223,-0.949996999999996,49.568995,"EOG"
"259",0.629859451457513,-0.160004000000001,49.88121,"EOG"
"260",-1.32029275151907,-0.609999999999999,49.222632,"EOG"
"261",1.27849522552959,0.680000000000007,49.851941,"EOG"
"262",-0.831789077179557,-0.390006999999997,49.437278,"EOG"
"263",-1.16439056373613,1.10000600000001,48.861635,"EOG"
"264",-1.88698761308335,-1.81000499999999,47.939622,"EOG"
"265",2.09627017918498,2.92999999999999,48.944566,"EOG"
"266",2.07316170706263,1.810006,49.959266,"EOG"
"267",0.673756896268254,0.470000999999996,50.29587,"EOG"
"268",1.40640573470545,1,51.003234,"EOG"
"269",-1.40602652765116,-1.290001,50.286115,"EOG"
"270",0.155213819958044,-0.0699999999999932,50.364166,"EOG"
"271",-0.939558891931212,-0.770004,49.890965,"EOG"
"272",1.25159535398844,-0.119995000000003,50.515398,"EOG"
"273",-1.5741239928467,-0.0600049999999896,49.720223,"EOG"
"274",-2.85517625293031,-1.43000000000001,48.300623,"EOG"
"275",-0.12120340559583,0.0500030000000038,48.242081,"EOG"
"276",0.212708485771997,-0.569999999999993,48.344696,"EOG"
"277",-2.25389358121106,-2.75,47.255058,"EOG"
"278",4.63240993165218,1.19000200000001,49.444106,"EOG"
"279",0.326113692904071,0.129998000000001,49.60535,"EOG"
"280",2.47242081751263,2.029999,50.831803,"EOG"
"281",-0.211479809205281,-1,50.724304,"EOG"
"282",1.68577374664421,0.91999899999999,51.579401,"EOG"
"283",0.956802503386963,1.01999699999999,52.072914,"EOG"
"284",-0.337805178331292,1.010002,51.897009,"EOG"
"285",0.338950169556015,0.360000999999997,52.072914,"EOG"
"286",-2.34587601531191,-1.93000000000001,50.851348,"EOG"
"287",-0.614968948315783,-0.610000999999997,50.538628,"EOG"
"288",-1.38257809452208,-0.180000000000007,49.839892,"EOG"
"289",-0.372546954957283,-2.26999600000001,49.654215,"EOG"
"290",-2.37158315764331,-1.650002,48.476624,"EOG"
"291",-1.2397913683098,-1.28999400000001,47.875615,"EOG"
"292",-5.97061155245735,-4.380005,45.017148,"EOG"
"293",4.11375460746647,-2.349999,46.869043,"EOG"
"294",-7.63136128040848,-5,43.292297,"EOG"
"295",2.55079327391661,0.580001999999993,44.396594,"EOG"
"296",-4.25930196356955,-3.520004,42.505609,"EOG"
"297",7.06977989657789,5.18000000000001,45.510662,"EOG"
"298",1.08438985132757,-2.629997,46.004175,"EOG"
"299",2.27296979024187,1.099999,47.049836,"EOG"
"300",-1.77588504240483,-0.419998000000007,46.214285,"EOG"
"301",-0.613238958473548,-1.269997,45.930881,"EOG"
"302",-6.77659982180616,-4.030007,42.818329,"EOG"
"303",-0.0684660066954071,0.949996999999996,42.789013,"EOG"
"304",-1.39317305589637,-3.550004,42.192888,"EOG"
"305",3.03416774883955,2.650001,43.473091,"EOG"
"306",1.0677708654303,1.57000000000001,43.937284,"EOG"
"307",-1.84608133720783,-2.360001,43.126166,"EOG"
"308",1.80149100200562,2.11,43.90308,"EOG"
"309",1.89204948718859,0.330002000000007,44.733748,"EOG"
"310",0.709987457344292,1.099999,45.051352,"EOG"
"311",0.42299285490922,-0.390006999999997,45.241916,"EOG"
"312",-1.26363348537229,-1.90000199999999,44.670224,"EOG"
"313",-3.35812732884437,-1,43.170141,"EOG"
"314",-1.57328881552646,1.220001,42.49095,"EOG"
"315",4.26632965372626,2.18999500000001,44.303754,"EOG"
"316",-1.56611785087106,-0.370002999999997,43.609905,"EOG"
"317",-4.40335974132481,-1.989998,41.689604,"EOG"
"318",0.925926281285858,1.58000199999999,42.075619,"EOG"
"319",0.743233272456428,0.319999999999993,42.388339,"EOG"
"320",1.15273920027865,1.889999,42.876966,"EOG"
"321",3.01994315549286,1.529999,44.171826,"EOG"
"322",-0.265483704477149,-0.969993000000002,44.054557,"EOG"
"323",-2.66193574480843,-0.360000999999997,42.881853,"EOG"
"324",-0.729261862821078,-1.089996,42.569132,"EOG"
"325",-4.23553855878481,-3.54000099999999,40.7661,"EOG"
"326",-8.00671391180418,-4.08000199999999,37.502075,"EOG"
"327",-3.94788021729464,-1.64,36.021538,"EOG"
"328",4.01519224415126,1.41999800000001,37.467872,"EOG"
"329",2.51695372504743,-0.0400010000000037,38.410921,"EOG"
"330",-5.49548395363913,-4.44000199999999,36.300055,"EOG"
"331",-0.686500337258447,-2.25,36.050855,"EOG"
"332",-3.75440194136865,-0.379997000000003,34.697361,"EOG"
"333",-3.66145425296178,-1.729995,33.426933,"EOG"
"334",7.67431759294219,6.320008,35.992222,"EOG"
"335",4.26282656291685,3.09000400000001,37.526508,"EOG"
"336",2.26562247678361,2.16999800000001,38.376717,"EOG"
"337",-4.6345809100867,-4.150001,36.598117,"EOG"
"338",6.02136443249251,2.570008,38.801823,"EOG"
"339",0.919276395853874,1.5,39.158519,"EOG"
"340",1.01072770397675,0.149993999999992,39.554305,"EOG"
"341",-0.705531294254828,0.200003999999993,39.275237,"EOG"
"342",4.68711366401176,1.890007,41.116112,"EOG"
"343",-3.06025287605015,-1.889999,39.857855,"EOG"
"344",5.66268556097662,4.5,42.11488,"EOG"
"345",2.15066978702064,2.209999,43.020632,"EOG"
"346",-0.603171055227635,-0.170006000000001,42.761144,"EOG"
"347",3.75544676728012,1.660004,44.367016,"EOG"
"348",0.507613583929114,-0.0299990000000037,44.592229,"EOG"
"349",-3.90865637149469,-3.56000499999999,42.849272,"EOG"
"350",-0.114258650648712,-1.56000499999999,42.800313,"EOG"
"351",6.19995232277857,1.839996,45.453912,"EOG"
"352",2.5204695252633,3.540001,46.599564,"EOG"
"353",-6.04118527804251,-3.959999,43.784398,"EOG"
"354",-3.96958752293455,-0.110000999999997,42.046338,"EOG"
"355",11.8304642844283,5.32000000000001,47.020615,"EOG"
"356",4.15451605641483,2.44999700000001,48.974094,"EOG"
"357",1.64950677801207,2.84000400000001,49.781925,"EOG"
"358",-0.501575622075679,-0.31000499999999,49.532231,"EOG"
"359",0.731448983188335,0.160004000000001,49.894534,"EOG"
"360",-3.61103081952825,-1.20999900000001,48.092827,"EOG"
"361",1.84261158114078,0.629997000000003,48.978991,"EOG"
"362",3.9684137225285,2.800003,50.92268,"EOG"
"363",-0.230751798609188,0.829994999999997,50.805175,"EOG"
"364",-1.35876906240359,-0.970000999999996,50.11485,"EOG"
"365",-1.63149645264827,-1.25,49.297228,"EOG"
"366",-3.6448560555981,-3.380005,47.500415,"EOG"
"367",0.845186299951282,-0.530006999999998,47.901882,"EOG"
"368",-1.87039415278089,0.300003000000004,47.005928,"EOG"
"369",-1.07280298774231,-0.599998999999997,46.501647,"EOG"
"370",-3.54811948918713,-2,44.851713,"EOG"
"371",-0.807768479210584,0.0200049999999976,44.489415,"EOG"
"372",5.19422653680657,1.599998,46.800296,"EOG"
"373",2.76180090826775,1.96000599999999,48.092827,"EOG"
"374",5.60927932142563,1.699997,50.790488,"EOG"
"375",-1.16637587730995,-1.099998,50.19808,"EOG"
"376",0.0292580911461198,-1.23000300000001,50.212767,"EOG"
"377",-0.438764906144282,-1.879997,49.992451,"EOG"
"378",2.72255305105964,2.43000000000001,51.353522,"EOG"
"379",-1.7732863580418,-1.08000199999999,50.442877,"EOG"
"380",-2.3294210597861,-1.910004,49.26785,"EOG"
"381",3.10047018491775,3.279999,50.795385,"EOG"
"382",-2.60240767935907,-1.039993,49.473482,"EOG"
"383",-2.52350542054024,-3.260002,48.225016,"EOG"
"384",-5.41116875938413,-3.81000499999999,45.615479,"EOG"
"385",1.36310308174118,-0.119995999999986,46.237265,"EOG"
"386",3.43074790431484,2.25,47.823549,"EOG"
"387",-2.1601157203954,-1.94000200000001,46.790505,"EOG"
"388",2.511250947174,0.130004999999997,47.965532,"EOG"
"389",0.214349754319404,-0.0699999999999932,48.068346,"EOG"
"390",0.152782456879222,0.110000999999997,48.141786,"EOG"
"391",-0.061023909665506,-0.210005999999993,48.112408,"EOG"
"392",0.753032357058494,0.620002999999997,48.47471,"EOG"
"393",-2.59569577620991,-2.79000099999999,47.216454,"EOG"
"394",1.66943074547699,1.68000000000001,48.0047,"EOG"
"395",0.469147812610023,0.459998999999996,48.229913,"EOG"
"396",2.98446318988798,0.839995999999999,49.669317,"EOG"
"397",0.137998676325664,0.129997000000003,49.73786,"EOG"
"398",0.551240041288466,1,50.012035,"EOG"
"399",0.274106022680348,0.180000000000007,50.149121,"EOG"
"400",-0.253834957545918,-0.30000299999999,50.021825,"EOG"
"401",3.27884878250644,0.129998000000001,51.661965,"EOG"
"402",-2.22706395314232,-1.610001,50.51142,"EOG"
"403",0.844577325286047,0.25,50.938028,"EOG"
"404",-0.80862180216322,0.370002999999997,50.526132,"EOG"
"405",0.659937713023432,-0.979996,50.859573,"EOG"
"406",1.59082342276055,1.75,51.668659,"EOG"
"407",-0.275221000026331,-0.610000000000014,51.526456,"EOG"
"408",-1.82717786761815,-1.709999,50.584976,"EOG"
"409",2.36525169054148,0.769996000000006,51.781438,"EOG"
"410",-0.994313831145442,-0.0799939999999992,51.266568,"EOG"
"411",2.16164070120707,2.52999899999999,52.374767,"EOG"
"412",-1.92865583535675,-2.540001,51.364638,"EOG"
"413",-0.601429333542665,-0.209998999999996,51.055716,"EOG"
"414",1.14290631043153,2.29999599999999,51.639235,"EOG"
"415",0.788150715245882,0.56999900000001,52.04623,"EOG"
"416",-0.226114360252422,-1.049995,51.928546,"EOG"
"417",0.547689126516274,0.830000999999996,52.212953,"EOG"
"418",2.45115804884662,1.059997,53.492775,"EOG"
"419",0.889174285686236,0.589996999999997,53.968419,"EOG"
"420",0.972196350610171,1.129997,54.493098,"EOG"
"421",0.260957818914974,-0.0200040000000001,54.635302,"EOG"
"422",0.924427945872794,1.39999399999999,55.140366,"EOG"
"423",-0.551351073730635,1.06000499999999,54.836349,"EOG"
"424",1.38602772405581,0.839995999999999,55.596396,"EOG"
"425",0.326339498696999,0.589995999999999,55.777829,"EOG"
"426",0.958237367037011,0.339995999999999,56.312313,"EOG"
"427",2.42076541945631,2.630005,57.675502,"EOG"
"428",-2.78014225173108,-4.72000199999999,56.072041,"EOG"
"429",1.13686248731342,-0.330000999999996,56.709503,"EOG"
"430",0.00864934400853562,-0.299994999999996,56.714408,"EOG"
"431",0.726263421457205,0.650002000000001,57.126304,"EOG"
"432",0.901288835349827,0.889999000000003,57.641177,"EOG"
"433",-1.64185405166172,-1.709999,56.694793,"EOG"
"434",0.856251472688154,0.69000299999999,57.180243,"EOG"
"435",-2.35828833396179,-2.870002,55.831768,"EOG"
"436",2.6787312198317,2.660004,57.327351,"EOG"
"437",-2.57463143552543,-2.5,55.851383,"EOG"
"438",-0.61457923074169,-0.310005000000004,55.508132,"EOG"
"439",-0.424024357368036,1.599998,55.272764,"EOG"
"440",0.372603041888767,0.419998000000007,55.478712,"EOG"
"441",1.12250623266091,-0.309996999999996,56.101464,"EOG"
"442",0.498208032503396,0.480002999999996,56.380966,"EOG"
"443",-1.08714526104431,-1.509995,55.768023,"EOG"
"444",2.74333554911925,3,57.297927,"EOG"
"445",-1.85707940184293,-2.12999799999999,56.233859,"EOG"
"446",0.828388818202924,0.790001000000004,56.699694,"EOG"
"447",0.994552104637457,0.419998000000007,57.263602,"EOG"
"448",0.52235100404617,0.739997000000002,57.562719,"EOG"
"449",-2.28298805690537,-1.43000000000001,56.248569,"EOG"
"450",-0.784588848829211,-0.900001000000003,55.807249,"EOG"
"451",-3.04015343956482,-2.010003,54.110623,"EOG"
"452",1.2505695970272,1.25,54.787314,"EOG"
"453",0.384857341245092,-0.599997999999999,54.998167,"EOG"
"454",-0.784598875813451,-1.17999999999999,54.566652,"EOG"
"455",-1.48274627514255,-1.110001,53.757567,"EOG"
"456",-0.556418410825777,0.529999000000004,53.45845,"EOG"
"457",1.90790791727034,1.619995,54.478388,"EOG"
"458",2.02520309521639,2.36,55.581686,"EOG"
"459",0.185266060478992,0.93000099999999,55.68466,"EOG"
"460",-2.67699937469314,-1.54000099999999,54.193982,"EOG"
"461",-1.21244642993755,-0.94000299999999,53.536909,"EOG"
"462",-1.59369678962975,0.490005000000011,52.683693,"EOG"
"463",-3.20178959360346,-3.44000200000001,50.996872,"EOG"
"464",-1.00961878603065,-2.23000300000001,50.481998,"EOG"
"465",2.37401063246349,2.220001,51.680446,"EOG"
"466",-1.7962364334085,-1.400001,50.752143,"EOG"
"467",-0.541957410547166,-1.09000399999999,50.477088,"EOG"
"468",1.97529025446158,0.880004999999997,51.474157,"EOG"
"469",-0.60114826164127,-0.220000999999996,51.164721,"EOG"
"470",-0.201593985042932,-0.340004000000008,51.061576,"EOG"
"471",-0.894574816883833,-1.86,50.604792,"EOG"
"472",0.553236144118525,2.989997,50.884756,"EOG"
"473",0.82046182947206,0.339995999999999,51.302246,"EOG"
"474",1.89564799950474,1.050003,52.274756,"EOG"
"475",1.9637279607771,2.099999,53.30129,"EOG"
"476",0.460744946323056,0.00999500000000353,53.546873,"EOG"
"477",0.724638019478751,0.93000099999999,53.934894,"EOG"
"478",1.2931479943207,0.929999999999993,54.632352,"EOG"
"479",-1.75312789022885,-0.620002999999997,53.674577,"EOG"
"480",-1.43667643622045,-1.290001,52.903447,"EOG"
"481",-2.24677231334283,-1.110001,51.714827,"EOG"
"482",-0.493877703583931,0.299996000000007,51.459419,"EOG"
"483",-0.744485669377651,0.369995000000003,51.076311,"EOG"
"484",1.06741068281145,1.29000000000001,51.621505,"EOG"
"485",1.34158235022401,-0.229996,52.31405,"EOG"
"486",-2.14064290568213,-1.25,51.194193,"EOG"
"487",-3.06054243300602,-1.860001,49.627373,"EOG"
"488",-1.81116377044579,-1.779999,48.72854,"EOG"
"489",-0.26207434082779,-0.710007000000004,48.600835,"EOG"
"490",-1.62708315608157,-1.570008,47.810059,"EOG"
"491",-1.05814552540084,-1.58000100000001,47.304159,"EOG"
"492",4.03903808965297,2.869995,49.214792,"EOG"
"493",1.12775037228644,-0.259994000000006,49.769812,"EOG"
"494",0.365139012379627,1.40999599999999,49.951541,"EOG"
"495",-0.894785207927819,-1.209999,49.504582,"EOG"
"496",0.952475469846409,1.19000200000001,49.976101,"EOG"
"497",3.0565109511044,0.410004000000001,51.503626,"EOG"
"498",-3.69063723785194,-2.349998,49.602814,"EOG"
"499",-1.67342925342906,-1.449997,48.772746,"EOG"
"500",-7.68379127146132,-4.209999,45.02515,"EOG"
"501",-1.38539904919805,-1.559997,44.401372,"EOG"
"502",1.62610740947375,2.260002,45.123386,"EOG"
"503",3.31990378558914,1.879997,46.621439,"EOG"
"504",0.558363288614924,-1.130005,46.881756,"EOG"
"505",-1.6448402657955,0.0599970000000098,46.110626,"EOG"
"506",-2.07711558719676,-3.41999799999999,45.152855,"EOG"
"507",2.43663219081052,1.55999700000001,46.253064,"EOG"
"508",-1.56100793668502,-1.09000400000001,45.53105,"EOG"
"509",1.89860106454825,1.559997,46.395503,"EOG"
"510",2.30785513846031,1.75,47.466244,"EOG"
"511",-1.97640243032502,-1.29999600000001,46.52812,"EOG"
"512",1.28786419911227,0.259994999999989,47.127339,"EOG"
"513",-3.13704535704848,-3.199997,45.648933,"EOG"
"514",-6.95072106066532,-6.369995,42.476003,"EOG"
"515",1.31822431597437,-0.0699990000000099,43.035932,"EOG"
"516",-3.10431524987074,-0.790000000000006,41.699961,"EOG"
"517",-1.10718808585936,-0.95999900000001,41.238264,"EOG"
"518",2.10815130336234,1.480003,42.107629,"EOG"
"519",-0.664877141384521,-0.0399929999999955,41.827665,"EOG"
"520",5.81258360943647,2.160004,44.258933,"EOG"
"521",-1.29841132862376,-0.599998999999997,43.68427,"EOG"
"522",6.6899000486903,4.889999,46.606704,"EOG"
"523",-3.04563051701747,-2.08000199999999,45.187236,"EOG"
"524",-1.47826257839714,0.870001999999999,44.51925,"EOG"
"525",0.937774108952871,1.079994,44.93674,"EOG"
"526",-2.33905263265648,-2.120003,43.885646,"EOG"
"527",2.83156137202583,2.16999800000001,45.128295,"EOG"
"528",-0.903346780550875,0.889999000000003,44.72063,"EOG"
"529",2.25571285556577,1.55999700000001,45.729399,"EOG"
"530",0.333581904279994,0.809997999999993,45.881944,"EOG"
"531",2.145002835974,1.05999799999999,46.866113,"EOG"
"532",1.53296903457729,1.849999,47.584556,"EOG"
"533",1.6028982176486,1.05999799999999,48.347288,"EOG"
"534",0.997458223509872,1.760002,48.829532,"EOG"
"535",-2.04575788275013,0.569999999999993,47.830598,"EOG"
"536",-1.74896830685663,-1.790001,46.994056,"EOG"
"537",0.198954948685424,-0.799995999999993,47.087553,"EOG"
"538",1.80791726425028,0.0800020000000075,47.938857,"EOG"
"539",3.68507951701894,3.040001,49.705442,"EOG"
"540",-1.4355068002413,-1.12000200000001,48.991917,"EOG"
"541",-1.55684457091157,-1.40999600000001,48.229189,"EOG"
"542",2.48953595300971,1.51999699999999,49.429872,"EOG"
"543",-4.31059785062766,-2.00999400000001,47.299149,"EOG"
"544",11.0590911477075,3.69000200000001,52.530005,"EOG"
"545",-0.946137355212523,-1.230003,52.032999,"EOG"
"546",2.83714763394668,3.009995,53.509252,"EOG"
"547",-0.772481364531122,0.480003999999994,53.095903,"EOG"
"548",1.39944507582817,1.880005,53.838951,"EOG"
"549",0.530110625669512,1.879997,54.124357,"EOG"
"550",-0.627325697375033,-1.599999,53.784821,"EOG"
"551",0.960655795433432,0.0899959999999993,54.301508,"EOG"
"552",-0.480288687378627,0.139999999999986,54.040704,"EOG"
"553",1.06537657244436,1.229996,54.616441,"EOG"
"554",0.180202148287175,0.690002000000007,54.714861,"EOG"
"555",-1.45696797073103,-1.94000200000001,53.917683,"EOG"
"556",-0.730129668220342,-1.510002,53.524014,"EOG"
"557",0.128717924630985,0.360000999999997,53.592909,"EOG"
"558",-1.74456102019019,-1.739998,52.657948,"EOG"
"559",1.77553633498974,1.950005,53.592909,"EOG"
"560",0.238723746083643,0.18999500000001,53.720848,"EOG"
"561",-0.320599927983256,-0.419998000000007,53.548619,"EOG"
"562",-0.707586875396359,-0.829993999999999,53.169716,"EOG"
"563",-1.99907782091596,-1.55999799999999,52.106812,"EOG"
"564",2.2759500235785,1.310005,53.292737,"EOG"
"565",0.941824399073359,1.05999799999999,53.794661,"EOG"
"566",-0.713500174301674,-0.54000099999999,53.410836,"EOG"
"567",3.56550869190663,2.59000400000001,55.315204,"EOG"
"568",0.418107470054704,1.93000000000001,55.546481,"EOG"
"569",-0.425227657536036,-0.599997999999999,55.310282,"EOG"
"570",0.0266894318130533,-0.379997999999986,55.325044,"EOG"
"571",0.489196176689894,0.130004999999997,55.595692,"EOG"
"572",1.94724440159859,1.75,56.678276,"EOG"
"573",2.1184254087051,1.880005,57.878963,"EOG"
"574",-1.03723869413487,-1.010002,57.27862,"EOG"
"575",-0.446739114873921,-0.350005999999993,57.022734,"EOG"
"576",-1.99344001990504,-2.09000400000001,55.88602,"EOG"
"577",-0.0176072656453332,0.639999000000003,55.87618,"EOG"
"578",0.352262806798895,-0.620002999999997,56.073011,"EOG"
"579",-0.649406895591894,0.610000999999997,55.708869,"EOG"
"580",-0.697818869738681,-1.27999899999999,55.320122,"EOG"
"581",-1.61892809997779,-1.270005,54.424529,"EOG"
"582",2.35081134096723,1.439995,55.703947,"EOG"
"583",-1.01589569586514,-0.549994999999996,55.138053,"EOG"
"584",1.90986250457556,1.20000400000001,56.191114,"EOG"
"585",0.831942929624068,0.349997999999999,56.658592,"EOG"
"586",-3.52613951296213,-3.75,54.660731,"EOG"
"587",0.306082624471306,-0.510002,54.828038,"EOG"
"588",-1.35522814075529,-1.599998,54.084993,"EOG"
"589",-0.0818877798505015,0.959998999999996,54.040704,"EOG"
"590",1.12001686728582,1.139999,54.645969,"EOG"
"591",-1.39576992403593,-1.349998,53.883237,"EOG"
"592",0.301372020392905,-0.580002000000007,54.045626,"EOG"
"593",-0.956027412838185,-1.19000199999999,53.528935,"EOG"
"594",1.50999454780858,1.589996,54.337219,"EOG"
"595",3.16553189812678,2.029999,56.057281,"EOG"
"596",1.31879567972624,0.699996999999996,56.796562,"EOG"
"597",-0.425196511014175,0.209998999999996,56.555065,"EOG"
"598",-1.46405277758941,-1.45999900000001,55.727069,"EOG"
"599",-0.849030836342749,-0.669998000000007,55.253929,"EOG"
"600",-1.73936047154221,0.0900040000000075,54.292864,"EOG"
"601",0.490189649969466,-0.180000000000007,54.559002,"EOG"
"602",1.5537509282153,0.369995000000003,55.406713,"EOG"
"603",1.48549869760366,1.799995,56.229779,"EOG"
"604",2.10360421299183,2.239998,57.412631,"EOG"
"605",0.334792181880678,0.389999000000003,57.604844,"EOG"
"606",-1.43737217654821,-2.57000000000001,56.776848,"EOG"
"607",1.39756965726593,2.25999499999999,57.570344,"EOG"
"608",4.42599578699756,-1.40999600000001,60.118405,"EOG"
"609",-1.62322004384515,0,59.142551,"EOG"
"610",-3.52500182144662,-4.10000599999999,57.057775,"EOG"
"611",-1.07972664549222,-1.11,56.441707,"EOG"
"612",0.209573746591332,-0.329993999999999,56.559994,"EOG"
"613",0.453117091914819,1.379997,56.816277,"EOG"
"614",-1.66550863584392,-2.01999600000001,55.869997,"EOG"
"615",2.47001087184594,2.72000199999999,57.249992,"EOG"
"616",0.43904460283593,-0.580001999999993,57.501345,"EOG"
"617",1.66281153945182,0.400002000000001,58.457484,"EOG"
"618",-1.02014996061069,-0.989997000000002,57.86113,"EOG"
"619",0.630322981939684,0.349997999999999,58.225842,"EOG"
"620",0.719482940238119,0.489998,58.644767,"EOG"
"621",-1.96654886530626,-0.799994999999996,57.491489,"EOG"
"622",-1.34590530434861,-0.45999900000001,56.717708,"EOG"
"623",1.10357597665971,2.260002,57.343631,"EOG"
"624",1.10872469865049,0.0400010000000037,57.979414,"EOG"
"625",-0.0169974122194504,0.220000999999996,57.969559,"EOG"
"626",-0.323078186604797,-1,57.782272,"EOG"
"627",-0.0511748655366124,0.239998,57.752702,"EOG"
"628",1.31421729843913,1.220001,58.511698,"EOG"
"629",-0.30323508984478,0.0699999999999932,58.33427,"EOG"
"630",-0.853330297953494,-1.360001,57.836486,"EOG"
"631",0.323821540610192,0.530006,58.023773,"EOG"
"632",0.849401847756434,0.410003000000003,58.516628,"EOG"
"633",1.69291197025229,1.540001,59.507263,"EOG"
"634",-1.84694093559638,-1.79999599999999,58.408199,"EOG"
"635",0.405025328721398,0.610000999999997,58.644767,"EOG"
"636",1.66400865741354,1.58000199999999,59.620621,"EOG"
"637",2.43861934950326,2.83999600000001,61.074541,"EOG"
"638",-1.18625042143175,-1.150001,60.350044,"EOG"
"639",1.56799057180472,1.58000199999999,61.296327,"EOG"
"640",-0.643244088671082,1.15000199999999,60.902042,"EOG"
"641",-0.647408505613003,-0.340003999999993,60.507757,"EOG"
"642",-0.993722176811145,-1.589996,59.906478,"EOG"
"643",0.0658109128031218,-0.350005999999993,59.945903,"EOG"
"644",-2.48293699070644,-1.949997,58.457484,"EOG"
"645",1.83795628289441,2.68000000000001,59.531907,"EOG"
"646",2.39258083904486,0.279998000000006,60.956256,"EOG"
"647",0.404270236019736,0.690002000000007,61.202684,"EOG"
"648",1.30456043398358,1.57000000000001,62.00111,"EOG"
"649",0.15102794127396,0.779999000000004,62.094749,"EOG"
"650",-1.4683689276206,-1.610001,61.182969,"EOG"
"651",0.394714417994328,0.269996000000006,61.424467,"EOG"
"652",1.17949253023229,0.699995999999999,62.148964,"EOG"
"653",-0.372722222690628,-0.43000099999999,61.917321,"EOG"
"654",-0.772102203840507,-0.989998,61.439256,"EOG"
"655",0.489994540298468,1.089996,61.740305,"EOG"
"656",0.21582983757531,0.540001000000004,61.873559,"EOG"
"657",0.526438118744718,0.0299990000000037,62.199285,"EOG"
"658",0.603034263175206,0.450005000000004,62.574368,"EOG"
"659",-0.228726241390085,-0.449996999999996,62.431244,"EOG"
"660",-1.38339867134475,-1.410004,61.567571,"EOG"
"661",0.192382122724967,0.0899959999999993,61.686016,"EOG"
"662",0.224016736629571,-0.100005999999993,61.824203,"EOG"
"663",-0.854154157070163,-1.610001,61.296129,"EOG"
"664",2.2061230000348,2.27999800000001,62.648397,"EOG"
"665",-0.488421116345561,-0.849998000000014,62.342409,"EOG"
"666",-1.06079474728031,-0.519997000000004,61.681084,"EOG"
"667",2.8964649843054,1.960007,63.467655,"EOG"
"668",-1.01866690994019,-0.379997000000003,62.821131,"EOG"
"669",1.20198568217436,0.170013000000012,63.576232,"EOG"
"670",0.659828345913926,1.939995,63.995726,"EOG"
"671",0.0771223378261206,0.0500030000000038,64.045081,"EOG"
"672",2.70478227672162,3.14000000000001,65.777361,"EOG"
"673",0.0450154879275337,0.0500030000000038,65.806971,"EOG"
"674",0.56997912880688,0.600006000000008,66.182057,"EOG"
"675",-0.372856346849417,-0.5,65.935293,"EOG"
"676",-0.202098138852599,-4.740005,65.802039,"EOG"
"677",-3.10507703264331,-4.06999300000001,63.758835,"EOG"
"678",1.71065076706624,0.839995999999985,64.849526,"EOG"
"679",-3.05174628415942,-4.03999399999999,62.870483,"EOG"
"680",-2.62971735082741,-2.449997,61.217167,"EOG"
"681",1.04804425203146,0.339995999999999,61.85875,"EOG"
"682",-2.84825186412593,-3.900001,60.096857,"EOG"
"683",1.42071323297323,1.129997,60.950661,"EOG"
"684",2.76923001704609,3.80999700000001,62.638525,"EOG"
"685",-0.953355782244239,-0.730003000000011,62.041357,"EOG"
"686",-2.15575555512108,-1.639999,60.703897,"EOG"
"687",-0.983739149399249,-0.989998,60.106729,"EOG"
"688",2.38935643960928,1.619995,61.542893,"EOG"
"689",0.721732402147558,0.419997999999993,61.987068,"EOG"
"690",1.56050936301746,1.80999799999999,62.954382,"EOG"
"691",0.87801513165517,0.489991000000003,63.507131,"EOG"
"692",-0.0155336886498585,0.330001999999979,63.497266,"EOG"
"693",1.10368216483526,0.580002000000007,64.198074,"EOG"
"694",-0.153749160761446,-0.119994999999989,64.09937,"EOG"
"695",1.50138293090869,1.33999700000001,65.061747,"EOG"
"696",-1.06956242659761,-1.050003,64.365871,"EOG"
"697",-1.14246570204884,0.0199890000000096,63.630513,"EOG"
"698",-1.2875175153782,-1.830009,62.811259,"EOG"
"699",-0.80930235771902,-2.12000300000001,62.302926,"EOG"
"700",-1.85360957204482,-1.369995,61.148073,"EOG"
"701",0.871672603648527,0.54000099999999,61.681084,"EOG"
"702",-0.848140087810389,-1.849999,61.157942,"EOG"
"703",4.01871763441615,4.419991,63.615707,"EOG"
"704",-0.543052991614161,0.309997999999993,63.27024,"EOG"
"705",-0.10139680203521,-0.0999909999999886,63.206086,"EOG"
"706",0.343552359815477,0.439988,63.423232,"EOG"
"707",0.420207219966335,0.25,63.689741,"EOG"
"708",-2.2859395832682,-2.950005,62.233832,"EOG"
"709",-2.56938701765946,-3.209999,60.634804,"EOG"
"710",1.53833596955306,3.75,61.567571,"EOG"
"711",1.71543067697116,2,62.62372,"EOG"
"712",1.07179356320576,1.18000000000001,63.294917,"EOG"
"713",0.288495520106299,0.0599969999999814,63.47752,"EOG"
"714",-0.279894362602696,-0.75,63.29985,"EOG"
"715",-3.07795358124862,-3.170006,61.35151,"EOG"
"716",-6.39651574997909,-6.16999899999999,57.427151,"EOG"
"717",2.54755107039874,1.32000000000001,58.890137,"EOG"
"718",-3.63407712907851,-2.59000400000001,56.750024,"EOG"
"719",0.426754004544557,-0.08000100000001,56.992207,"EOG"
"720",-1.62171119290047,-2.72000199999999,56.067958,"EOG"
"721",2.6093085109324,2.450005,57.530944,"EOG"
"722",0.51546173134236,0.0999979999999994,57.827494,"EOG"
"723",2.50427417795417,2.889999,59.275653,"EOG"
"724",1.60927117918044,1.699997,60.229559,"EOG"
"725",-2.2484790233978,-2.579994,58.87531,"EOG"
"726",2.35896337530961,1.43000000000001,60.264157,"EOG"
"727",-0.631506386126003,-0.639999000000003,59.883585,"EOG"
"728",-1.92307958850492,-1.55999700000001,58.731976,"EOG"
"729",0.706889208018467,0.419998000000007,59.147146,"EOG"
"730",3.60157529832462,2.580001,61.277375,"EOG"
"731",1.66155616163388,1.440003,62.295533,"EOG"
"732",7.65630177688664,1.90000899999998,67.065067,"EOG"
"733",1.62870634275218,1.86000099999998,68.15736,"EOG"
"734",-1.31979143558377,-2.729996,67.257825,"EOG"
"735",-1.83715426420643,-1.91000299999999,66.022195,"EOG"
"736",0.0598904656229618,0.839996999999983,66.061736,"EOG"
"737",2.25197836157379,2.66999799999999,67.549432,"EOG"
"738",-1.44874201162787,-1.800003,66.570815,"EOG"
"739",-1.09139718358563,-1.28999400000001,65.844263,"EOG"
"740",1.52379562665923,1.449997,66.847595,"EOG"
"741",0.266174123392174,0.240006000000022,67.025526,"EOG"
"742",-0.980756197273267,-1.5,66.368169,"EOG"
"743",-2.49479083866242,-3.23001099999999,64.712422,"EOG"
"744",0.35897126520778,2.429993,64.944721,"EOG"
"745",-0.433784294800507,1.10000600000001,64.663001,"EOG"
"746",0.221656894643671,-1.340012,64.806331,"EOG"
"747",1.30415344760067,2.49000599999999,65.651505,"EOG"
"748",-0.105397431483092,0.359999999999985,65.58231,"EOG"
"749",-2.70555123782619,-2.62998999999999,63.807947,"EOG"
"750",2.05266751491001,1.60000600000001,65.117712,"EOG"
"751",0.311197973294891,0.69000299999999,65.320357,"EOG"
"752",-2.75423632482597,-3.13999999999999,63.52128,"EOG"
"753",1.64954484544392,1.729995,64.569092,"EOG"
"754",1.56153814273865,1.57998699999999,65.577363,"EOG"
"755",-0.798912880958648,-0.710007000000019,65.053457,"EOG"
"756",-1.90700088390382,-0.179991999999999,63.812887,"EOG"
"757",0.402760338989208,-1.62998999999999,64.0699,"EOG"
"758",2.85427478425905,3.65000900000001,65.898631,"EOG"
"759",-1.1925270496135,-1.86999600000001,65.112772,"EOG"
"760",1.20691989583854,0.130005000000011,65.898631,"EOG"
"761",1.26753467761721,1.520004,66.733919,"EOG"
"762",0.422152638750311,0.619995000000017,67.015638,"EOG"
"763",-3.39257383478167,-2.729996,64.742083,"EOG"
"764",-0.450424185455997,-1.840011,64.450469,"EOG"
"765",-2.29293754247157,-1.47999499999999,62.97266,"EOG"
"766",2.15053008718386,1.12998999999999,64.326906,"EOG"
"767",1.30619526454452,0.660004000000015,65.167141,"EOG"
"768",-0.637097152996166,-2.15000899999998,64.751963,"EOG"
"769",0.511409978412545,1.25,65.083111,"EOG"
"770",2.75668752220527,1.520005,66.877249,"EOG"
"771",1.89934696626052,2.64000000000001,68.14748,"EOG"
"772",0.217572241849584,0.179992999999996,68.29575,"EOG"
"773",1.60660070355769,1.33999599999999,69.39299,"EOG"
"774",-0.455839991906967,-1.740005,69.076669,"EOG"
"775",1.76016449200815,1.270004,70.292532,"EOG"
"776",0.0351587847198377,-0.419997999999993,70.317246,"EOG"
"777",0.899696782777875,-0.449996999999996,70.949888,"EOG"
"778",0.80808443277599,1.61000099999998,71.523223,"EOG"
"779",-0.679488394979063,-1.090012,71.037231,"EOG"
"780",0.710606245336338,0.779999000000004,71.542026,"EOG"
"781",0.878531172712382,0.779999000000004,72.170545,"EOG"
"782",0.802302379731231,0.580002000000007,72.749571,"EOG"
"783",1.13605343459687,0.859999999999985,73.576045,"EOG"
"784",0.551561313196453,0.859999999999985,73.981862,"EOG"
"785",-0.568602882690361,-0.979996,73.561199,"EOG"
"786",-3.07453797755526,-5.01998900000001,71.299532,"EOG"
"787",2.29054518899227,3.29998799999998,72.93268,"EOG"
"788",-1.10605286957781,-0.5,72.126006,"EOG"
"789",-0.706736762881346,-0.610000000000014,71.616265,"EOG"
"790",-0.421534130549804,-0.949996999999996,71.314378,"EOG"
"791",0.964607726088544,0.870010000000008,72.002282,"EOG"
"792",4.5226497126855,4.5,75.258693,"EOG"
"793",0.631282554960143,2.270004,75.733788,"EOG"
"794",0.751482284234874,1.239991,76.302914,"EOG"
"795",-0.622643323949589,-0.880005000000011,75.827819,"EOG"
"796",1.95796875022872,-4.08999700000001,77.312504,"EOG"
"797",1.5106909485172,0.720000999999996,78.480457,"EOG"
"798",0.163950370472489,0.179992000000027,78.609126,"EOG"
"799",-0.0503656534738714,0.599991000000017,78.569534,"EOG"
"800",-0.327531534042189,-0.759995000000004,78.312194,"EOG"
"801",-1.16279847810165,-1.720001,77.401581,"EOG"
"802",0.121485890578918,1.050003,77.495613,"EOG"
"803",-0.702465570534946,-0.0399940000000072,76.951233,"EOG"
"804",-1.80076126915342,-2.83000200000001,75.565525,"EOG"
"805",1.26399439426909,1.91999799999999,76.520669,"EOG"
"806",-1.79795605289336,-2.52999899999998,75.144861,"EOG"
"807",1.68598355648031,1.66999799999999,76.411791,"EOG"
"808",1.43782521731496,2.220001,77.510459,"EOG"
"809",0.312862293848633,-0.149993999999992,77.75296,"EOG"
"810",-0.521931255093052,0.129989000000023,77.347143,"EOG"
"811",2.0282895258329,2.520005,78.915967,"EOG"
"812",-1.4862733672135,-1.63999999999999,77.74306,"EOG"
"813",-0.0254582209653124,-0.449996999999996,77.723268,"EOG"
"814",0.878694395608778,-1.03001399999999,78.406218,"EOG"
"815",1.32550966812352,3.03999400000001,79.4455,"EOG"
"816",0.560639683808396,0.209992,79.890903,"EOG"
"817",0.179649990938267,-0.850006000000008,80.034427,"EOG"
"818",1.19341517869555,0.549987999999985,80.98957,"EOG"
"819",-0.0916550118737481,0,80.915339,"EOG"
"820",2.2324123241948,3.699997,82.721703,"EOG"
"821",0.502550098611967,0.450011999999987,83.137421,"EOG"
"822",-0.922675963210356,-1.30999800000001,82.370332,"EOG"
"823",-0.384523155740102,-1.73999000000001,82.053599,"EOG"
"824",1.18817944841151,1.260009,83.028543,"EOG"
"825",2.3961314123024,4.52999800000001,85.018016,"EOG"
"826",-0.617031571284854,-1.37001000000001,84.493428,"EOG"
"827",-1.08943976092435,-1.63000500000001,83.572923,"EOG"
"828",-0.00591818476901172,0.289994000000007,83.567977,"EOG"
"829",1.9128248132655,2.67999200000003,85.166486,"EOG"
"830",-0.412569564041894,-0.709991000000002,84.815115,"EOG"
"831",0.414278752083282,0.369995000000017,85.166486,"EOG"
"832",-0.790285042405074,-0.5,84.493428,"EOG"
"833",-0.849292089320841,1.720001,83.775832,"EOG"
"834",1.69541258629339,3.53999299999998,85.196178,"EOG"
"835",0.121991387923529,0.490006000000022,85.30011,"EOG"
"836",-0.324899932719903,-0.149993999999992,85.02297,"EOG"
"837",1.62397643836718,2.66999800000002,86.403723,"EOG"
"838",-1.00807230262519,0.619995000000017,85.532711,"EOG"
"839",-0.792683865708409,-0.879989000000023,84.854707,"EOG"
"840",0.0349927553223354,-0.809998000000007,84.8844,"EOG"
"841",1.94729184632276,1.47000200000002,86.537347,"EOG"
"842",2.36189237462988,4.66999799999999,88.581266,"EOG"
"843",1.15648493892602,3.699997,89.605695,"EOG"
"844",-0.498694865320785,-0.279999000000004,89.158836,"EOG"
"845",1.28909825606069,-0.19000299999999,90.308181,"EOG"
"846",-0.493714960331222,-0.289994000000007,89.862316,"EOG"
"847",1.32311301658416,1.12998900000002,91.051296,"EOG"
"848",0.288380299386404,1.320007,91.31387,"EOG"
"849",0.450296324096228,-1.63999900000002,91.725053,"EOG"
"850",-3.62408403296317,-4.679993,88.40086,"EOG"
"851",1.6756273638062,3.36999499999999,89.882129,"EOG"
"852",1.10787095396904,1.08999599999999,90.877907,"EOG"
"853",-0.556042735447239,-1.41000400000001,90.372587,"EOG"
"854",1.45817558592187,2.21000700000002,91.690378,"EOG"
"855",-2.56645795483578,-5.990005,89.337183,"EOG"
"856",-1.07026432655706,-1.58000200000001,88.381039,"EOG"
"857",0.325112720161624,0.369994999999989,88.668377,"EOG"
"858",2.50307953646201,2.99000599999999,90.887817,"EOG"
"859",-2.03314598259082,-3.61000000000001,89.039935,"EOG"
"860",-1.71924429190116,-4.69000300000002,87.509121,"EOG"
"861",-2.86458139603526,-7.729996,85.002351,"EOG"
"862",-0.361345299731771,-0.159987999999998,84.695199,"EOG"
"863",0.286611287140369,0.239990000000006,84.937945,"EOG"
"864",-2.53717699433391,-3.59999099999999,82.782919,"EOG"
"865",1.41232758414811,3.020005,83.952085,"EOG"
"866",0.123918304113595,0.179992999999996,84.056117,"EOG"
"867",1.00784217762522,1.10000600000001,84.90327,"EOG"
"868",-1.66880616023388,-2.979996,83.486399,"EOG"
"869",-0.373845325392468,-0.229996,83.174289,"EOG"
"870",-0.577760273971201,-1.93000800000002,82.693741,"EOG"
"871",1.4318229961322,1.19000300000002,83.877769,"EOG"
"872",0.496129075631463,-0.0500030000000038,84.293911,"EOG"
"873",-0.56420208097829,-0.130005000000011,83.818323,"EOG"
"874",0.00590682302244495,-0.150009000000011,83.823274,"EOG"
"875",-1.63711811113463,-2.5,82.450988,"EOG"
"876",-0.859215901694231,-1.5,81.742556,"EOG"
"877",0,-1,81.742556,"EOG"
"878",0.290906000052174,1.029999,81.98035,"EOG"
"879",0.997104794014665,1.529999,82.79778,"EOG"
"880",-1.04708846058434,0.0400089999999977,81.930814,"EOG"
"881",-3.22893411018717,-6.91000399999999,79.285322,"EOG"
"882",-1.18719956765767,-2.779999,78.344047,"EOG"
"883",0.739849448931327,0.880005000000011,78.923675,"EOG"
"884",-1.91450790906532,-2.590011,77.412675,"EOG"
"885",1.34391687149424,1.93000800000002,78.453037,"EOG"
"886",0.41677545255515,1.35000600000001,78.78001,"EOG"
"887",0.452773489112279,0.400008999999983,79.136705,"EOG"
"888",-0.0563493261439254,-0.870010000000008,79.092112,"EOG"
"889",1.47197485382613,2.36000100000001,80.256328,"EOG"
"890",2.05555629208454,3.66000400000001,81.906042,"EOG"
"891",1.92947548362794,2.40000900000001,83.486399,"EOG"
"892",-0.534066632817647,-1.64000000000001,83.040526,"EOG"
"893",0.381815982234996,0.439988,83.357588,"EOG"
"894",-0.142631286308346,-0.44000299999999,83.238694,"EOG"
"895",0.678490943166412,1.020005,83.803461,"EOG"
"896",-1.06999160810315,-1.59999099999999,82.906771,"EOG"
"897",0.292793938386524,0.5,83.149517,"EOG"
"898",-1.68016730632362,-1.550003,81.752466,"EOG"
"899",-0.278758563686626,-1.19000199999999,81.524574,"EOG"
"900",-0.328142775698525,-0.75,81.257057,"EOG"
"901",1.72539967820886,1.779999,82.659066,"EOG"
"902",-0.0419578900153426,0.759995000000004,82.624384,"EOG"
"903",0.13191142217773,-0.410003999999986,82.733375,"EOG"
"904",-0.11377391530322,-0.650008999999983,82.639246,"EOG"
"905",-2.00826735519828,-3.949997,80.979629,"EOG"
"906",3.14449946418005,4.540008,83.526033,"EOG"
"907",1.15668608372673,0.899994000000021,84.492167,"EOG"
"908",-0.152615330602178,0,84.363219,"EOG"
"909",-0.670193725064005,-2,83.797822,"EOG"
"910",0.159795322603968,0.0699920000000134,83.931727,"EOG"
"911",1.47137327461402,1.520004,85.166676,"EOG"
"912",-1.48497752806507,-0.610001000000011,83.90197,"EOG"
"913",-2.1516813014045,-2.520004,82.096667,"EOG"
"914",-2.07212675272188,-3.06999199999998,80.39552,"EOG"
"915",3.15854042613319,3.83999599999999,82.934845,"EOG"
"916",-1.53690164851697,-1.270004,81.660218,"EOG"
"917",0.898883223652433,1.029999,82.394248,"EOG"
"918",-0.535725503556994,0.570007000000004,81.952841,"EOG"
"919",-2.1181303525524,-2.86999600000001,80.216973,"EOG"
"920",4.22900649716613,5.91000400000001,83.609354,"EOG"
"921",-0.646574783964951,-0.610001000000011,83.068757,"EOG"
"922",3.43900776076377,5.55999800000001,85.925498,"EOG"
"923",1.87590184231459,1.729996,87.537376,"EOG"
"924",-1.30311765342384,-2.55999800000001,86.396661,"EOG"
"925",0.304246711571418,0.429992999999996,86.65952,"EOG"
"926",0.217482164683116,-0.639998999999989,86.847989,"EOG"
"927",0.205584495456766,1.88999899999999,87.026535,"EOG"
"928",0.849151353664728,1.25,87.765522,"EOG"
"929",1.67268987473235,1.800003,89.233567,"EOG"
"930",-0.589149372455317,-0.190001999999993,88.707848,"EOG"
"931",0.654141671884544,0.990005999999994,89.288123,"EOG"
"932",-1.12758894035661,-2.470001,88.28132,"EOG"
"933",1.34831128487884,1.970001,89.471627,"EOG"
"934",1.99556894164896,1.14999399999999,91.257095,"EOG"
"935",1.32608757708098,2.83000099999998,92.467244,"EOG"
"936",0.552456175724237,1.05999700000001,92.978085,"EOG"
"937",1.04016446456174,1.699997,93.94521,"EOG"
"938",-0.0686325572107365,0.239990000000006,93.880733,"EOG"
"939",1.1992205045949,1.08999700000001,95.00657,"EOG"
"940",-0.558567686424212,-1.54998800000001,94.475894,"EOG"
"941",0.299223418833175,0.339997000000011,94.758588,"EOG"
"942",-0.596669929273331,-1.60000600000001,94.193192,"EOG"
"943",-0.458085123604257,-0.869994999999989,93.761707,"EOG"
"944",-1.82491238134135,-4.23999000000001,92.050638,"EOG"
"945",-0.253233443096831,1.529999,91.817535,"EOG"
"946",-1.19915874456878,-3.33999600000001,90.716497,"EOG"
"947",1.67295260530176,3,92.234141,"EOG"
"948",0.677525689755163,0.629989999999992,92.859051,"EOG"
"949",1.03082250969807,1.76000999999999,93.816263,"EOG"
"950",-0.861706674460066,-1.820007,93.007842,"EOG"
"951",1.4930956037019,2.71000700000002,94.396538,"EOG"
"952",0.688277360341328,-0.270004999999998,95.046248,"EOG"
"953",-1.06449336116877,-2.64999399999999,94.034487,"EOG"
"954",1.03903049952301,0.390014000000008,95.011534,"EOG"
"955",0.287094617375613,-0.430008000000015,95.284307,"EOG"
"956",0.697487362740648,1.17001399999998,95.948903,"EOG"
"957",1.91253880203299,2.69000299999999,97.783963,"EOG"
"958",-0.502133463336926,-2.300003,97.292957,"EOG"
"959",0.91247817660635,-0.399994000000007,98.180734,"EOG"
"960",0.131337376231058,0.840003999999993,98.309682,"EOG"
"961",1.55382966247415,1.32000000000001,99.837247,"EOG"
"962",-0.874321985260675,-2.900001,98.964348,"EOG"
"963",-1.84423788655688,-1.79000099999999,97.13921,"EOG"
"964",0.796485785708975,0.929999999999993,97.91291,"EOG"
"965",0.24313443446835,0.00999499999998932,98.15097,"EOG"
"966",-0.848909593048342,-0.519996000000006,97.317757,"EOG"
"967",0.530013243112463,0.959998999999996,97.833554,"EOG"
"968",1.47707912154555,0.440001999999993,99.278633,"EOG"
"969",1.15046205360221,1.48000399999999,100.420796,"EOG"
"970",-0.098900829266479,-0.470000999999996,100.321479,"EOG"
"971",1.42559600820878,1.610001,101.751658,"EOG"
"972",1.05417446858703,0.549996000000007,102.824298,"EOG"
"973",-1.14942773545606,-0.930001000000004,101.642407,"EOG"
"974",2.67735591897189,2.55000299999999,104.363736,"EOG"
"975",-1.5226476752423,-2.019997,102.774644,"EOG"
"976",-4.29068671840886,-4.209999,98.364906,"EOG"
"977",-0.989502292616442,-1.88000400000001,97.391583,"EOG"
"978",1.59086745720111,0.740005999999994,98.940954,"EOG"
"979",-1.62618201558882,-1.06999999999999,97.331994,"EOG"
"980",-0.897956534210116,-1.209999,96.457995,"EOG"
"981",-0.0617844067772704,-0.240005000000011,96.398399,"EOG"
"982",2.25633934024154,3.209999,98.573474,"EOG"
"983",4.41309494682108,0.829993999999999,102.923615,"EOG"
"984",1.11937090433522,0.180000000000007,104.075712,"EOG"
"985",-2.92012414961907,-2.29999600000001,101.036572,"EOG"
"986",0.540642847621546,0.279999000000004,101.582819,"EOG"
"987",1.32968351665846,1.06999900000001,102.933549,"EOG"
"988",1.47626309863269,0.589996000000014,104.453119,"EOG"
"989",-1.20756566397984,-1.489997,103.191779,"EOG"
"990",-1.11646200033047,-1.230003,102.039682,"EOG"
"991",-0.233597356761652,-0.0699999999999932,101.80132,"EOG"
"992",-0.195118295126233,-0.199996999999996,101.602687,"EOG"
"993",-0.40078566032413,-0.330001999999993,101.195478,"EOG"
"994",2.22789698172086,1.460007,103.450009,"EOG"
"995",-0.460833212687298,-0.610000999999997,102.973277,"EOG"
"996",0.279707520622081,0.0800019999999932,103.261301,"EOG"
"997",0.730982461667794,0.29000099999999,104.016123,"EOG"
"998",0.439224215269022,0.33000100000001,104.472987,"EOG"
"999",1.40697326860195,1.25,105.942894,"EOG"
"1000",-0.815595050669464,-0.469994,105.078829,"EOG"
"1001",-0.396981013178207,-0.569999999999993,104.661686,"EOG"
"1002",1.21465843766362,1.210007,105.932968,"EOG"
"1003",-0.271892693500296,-0.109999999999999,105.644944,"EOG"
"1004",1.43837361492662,1.550004,107.164513,"EOG"
"1005",1.3160317352443,1.18000099999999,108.574832,"EOG"
"1006",0.17380455168469,-0.579993999999999,108.76354,"EOG"
"1007",-0.748790449446576,-0.699996999999996,107.949129,"EOG"
"1008",1.84929143800688,2.449997,109.945423,"EOG"
"1009",0.84010864190317,0.169998000000007,110.869084,"EOG"
"1010",2.14100082219494,2.25,113.242792,"EOG"
"1011",0.00877230225832053,-1.17999999999999,113.252726,"EOG"
"1012",-1.43821703682434,-1.55999799999999,111.623906,"EOG"
"1013",1.02322346612741,0.95999900000001,112.766068,"EOG"
"1014",1.99048972781422,2.660004,115.010665,"EOG"
"1015",1.88255671767483,0.929999999999993,117.175806,"EOG"
"1016",-0.483132157844939,-1.109993,116.609692,"EOG"
"1017",-3.73903997619682,-4.160003,112.249609,"EOG"
"1018",2.65439677388987,2.69999700000001,115.229159,"EOG"
"1019",-0.5171503508066,-0.260002,114.633251,"EOG"
"1020",0.363886565513179,0.609993000000003,115.050386,"EOG"
"1021",0.880528988403396,0.779999000000004,116.063438,"EOG"
"1022",-0.265273031115965,-0.889999000000003,115.755553,"EOG"
"1023",-0.274559614431631,-0.629998000000001,115.437735,"EOG"
"1024",0.44738577034624,0.480002999999996,115.954187,"EOG"
"1025",-0.873658835622734,-0.669999000000004,114.941143,"EOG"
"1026",0.216020124317014,0.609999999999999,115.189439,"EOG"
"1027",0.500080567281872,0.459999999999994,115.765479,"EOG"
"1028",-1.37268209290612,0.0800019999999932,114.176387,"EOG"
"1029",-1.13952458488637,-2.089996,112.875319,"EOG"
"1030",1.79498584628584,1.04000000000001,114.901415,"EOG"
"1031",-1.8387876250262,-1.47000199999999,112.788622,"EOG"
"1032",3.22637153949801,2.479995,116.427602,"EOG"
"1033",-1.32365175742432,-1.92999999999999,114.886506,"EOG"
"1034",0.424057634758252,0.680000000000007,115.373691,"EOG"
"1035",0.0947954417094977,0.290001000000004,115.48306,"EOG"
"1036",0.34438297703577,-0.199996999999996,115.880764,"EOG"
"1037",-0.514805028382447,-0.75,115.284204,"EOG"
"1038",0.215609763849349,-0.280006,115.532768,"EOG"
"1039",-1.18760506110266,-0.760002,114.160695,"EOG"
"1040",-1.24542777179134,-1.43000099999999,112.738906,"EOG"
"1041",0.749623204610485,0.970000999999996,113.584023,"EOG"
"1042",-0.533963302215492,-1.20000499999999,112.977526,"EOG"
"1043",-3.68740239541093,-3.39999399999999,108.81159,"EOG"
"1044",-1.2792414852131,-0.610000999999997,107.419627,"EOG"
"1045",3.48944518304834,3.06999999999999,111.167976,"EOG"
"1046",-2.8441104297878,-3.18000099999999,108.006236,"EOG"
"1047",-1.83190440966761,-0.390000000000001,106.027665,"EOG"
"1048",-0.543888238979895,-1.56999900000001,105.450993,"EOG"
"1049",1.6217248897789,1.70999900000001,107.161118,"EOG"
"1050",0.482468837251217,-0.419997999999993,107.678137,"EOG"
"1051",-1.48661190154135,-1.199997,106.077381,"EOG"
"1052",-0.318684338558476,-1.310006,105.739329,"EOG"
"1053",-2.27550337490793,-3.29000099999999,103.333227,"EOG"
"1054",2.07831794510782,2.119995,105.48082,"EOG"
"1055",-0.622109308592783,-1.22000199999999,104.824614,"EOG"
"1056",1.51759299585878,0.930001000000004,106.415425,"EOG"
"1057",0.233578919597419,0.190003000000004,106.663989,"EOG"
"1058",-0.0838886683677255,-0.309997999999993,106.57451,"EOG"
"1059",-0.858294351998437,-0.319998999999996,105.659787,"EOG"
"1060",1.57147392318708,1.010002,107.320203,"EOG"
"1061",1.35260273408166,0.540001000000004,108.771819,"EOG"
"1062",-0.722121784136007,-0.81999900000001,107.986354,"EOG"
"1063",-0.202560779114741,0.0699990000000099,107.767616,"EOG"
"1064",1.37466342393619,1.079994,109.249058,"EOG"
"1065",-1.97488018615227,-1.860001,107.09152,"EOG"
"1066",0.0278518784680593,-1.11,107.121347,"EOG"
"1067",-2.9051399064278,-3.150001,104.009322,"EOG"
"1068",0.544880967496356,0.830002000000007,104.576049,"EOG"
"1069",-3.58432837714112,-2.65999599999999,100.8277,"EOG"
"1070",-0.0986157573761904,-0.31999900000001,100.728268,"EOG"
"1071",0.690953010330718,1.08000199999999,101.424253,"EOG"
"1072",1.02930706327214,2.12999799999999,102.46822,"EOG"
"1073",-1.6883351735787,-1.18000000000001,100.738213,"EOG"
"1074",0.582317258297993,1.110001,101.324829,"EOG"
"1075",3.24796106983808,2.889999,104.61582,"EOG"
"1076",-0.0285100284067935,-0.459999999999994,104.585994,"EOG"
"1077",-0.199637630254774,-0.839996999999997,104.377201,"EOG"
"1078",-0.581063675006961,-0.869995000000003,103.770703,"EOG"
"1079",-2.51988656181697,-2.08000199999999,101.155799,"EOG"
"1080",-0.884608701474451,-0.710007000000004,100.260966,"EOG"
"1081",1.28917369497518,1.199997,101.553504,"EOG"
"1082",-1.74270500799264,-2.27999800000001,99.783726,"EOG"
"1083",1.51454456611492,1.50999400000001,101.294995,"EOG"
"1084",-0.0098099614892065,1.06999999999999,101.285058,"EOG"
"1085",-2.79768907275543,-2.830001,98.451417,"EOG"
"1086",-2.19147480629964,-2.360001,96.293879,"EOG"
"1087",0.216828942990239,1.29999599999999,96.502672,"EOG"
"1088",-0.504839907438003,-1.150001,96.015488,"EOG"
"1089",-1.53257045363349,-1.75,94.543983,"EOG"
"1090",-1.55641634010701,-1.40999600000001,93.072485,"EOG"
"1091",1.01484557976506,1.25,94.017027,"EOG"
"1092",-2.7495753508564,-1.68000000000001,91.431958,"EOG"
"1093",-2.3162218619446,-1.239998,89.314191,"EOG"
"1094",-6.75720726172171,-5.489998,83.279046,"EOG"
"1095",0.0955042160305331,-1.560006,83.358581,"EOG"
"1096",5.37575129787778,6.139999,87.839731,"EOG"
"1097",3.51593403672878,6.079995,90.928118,"EOG"
"1098",-0.0547773352132931,-2.979996,90.87831,"EOG"
"1099",1.68822681671788,1.130005,92.412542,"EOG"
"1100",3.52522279930358,1.680001,95.67029,"EOG"
"1101",-4.12371071520741,-4.69000200000001,91.725124,"EOG"
"1102",1.44455514718084,-0.839995999999999,93.050144,"EOG"
"1103",-1.391865659015,-0.849998999999997,91.755011,"EOG"
"1104",-3.98479708100084,-1.849999,88.09876,"EOG"
"1105",3.47167201899322,2.69000200000001,91.15726,"EOG"
"1106",1.7814170807679,-1.110001,92.781151,"EOG"
"1107",-0.977124114358085,-0.349998999999997,91.874564,"EOG"
"1108",3.06875034530776,3.10000600000001,94.693965,"EOG"
"1109",-1.82009803898274,-1.73000300000001,92.970442,"EOG"
"1110",-3.25760955293727,0.610000999999997,89.941828,"EOG"
"1111",6.44661124743873,0.599997999999999,95.740028,"EOG"
"1112",2.98647499873303,3.77999899999999,98.59928,"EOG"
"1113",0.586037747942995,-0.169997999999993,99.177109,"EOG"
"1114",-1.05474943819949,-2.510002,98.131039,"EOG"
"1115",0.25380756439357,0.25,98.380103,"EOG"
"1116",-1.20506582514963,-1.12000200000001,97.194558,"EOG"
"1117",-1.75276685758476,-0.650002000000001,95.490964,"EOG"
"1118",2.41002070101627,1.84000400000001,97.792316,"EOG"
"1119",-1.84393321863857,-0.660004000000001,95.989091,"EOG"
"1120",1.37000463938137,1.34999800000001,97.304146,"EOG"
"1121",0.675749212166153,-0.419998000000007,97.961678,"EOG"
"1122",1.12885265195232,0.990005000000011,99.067521,"EOG"
"1123",2.31294775206902,-0.75,101.358901,"EOG"
"1124",-2.14271758925247,-1.62000200000001,99.187066,"EOG"
"1125",-2.8324620470173,-3.540001,96.37763,"EOG"
"1126",-2.75997345027056,-2.550003,93.717633,"EOG"
"1127",-7.81332900287826,-0.440003000000004,86.395166,"EOG"
"1128",0.599627298592135,1.720001,86.913215,"EOG"
"1129",3.50757131697407,2.920006,89.961758,"EOG"
"1130",1.66112916557276,0.0900040000000075,91.456139,"EOG"
"1131",1.30718616931774,2.209999,92.651641,"EOG"
"1132",-2.41935488223032,-1.160004,90.410069,"EOG"
"1133",-2.82093358428915,-0.889999999999986,87.859661,"EOG"
"1134",1.08855758048053,2.150002,88.816064,"EOG"
"1135",-2.64722494345166,0.410004000000001,86.464903,"EOG"
"1136",0.0806546906089593,-0.33000100000001,86.534641,"EOG"
"1137",-0.564124371880159,1.060005,86.046478,"EOG"
"1138",-1.19255084444013,-1.75,85.02033,"EOG"
"1139",0.152337682057932,1.61,85.149848,"EOG"
"1140",6.6339049718562,3.52999800000001,90.798608,"EOG"
"1141",1.4373458236276,-1.380005,92.103698,"EOG"
"1142",2.77988078176841,1.39,94.664071,"EOG"
"1143",0.0420972810265034,0.849998999999997,94.703922,"EOG"
"1144",1.42016293686337,0.670006000000001,96.048872,"EOG"
"1145",-2.44787986682447,-1.55999799999999,93.697711,"EOG"
"1146",-0.244554533461331,-1.08000200000001,93.468569,"EOG"
"1147",0.543596639422184,-0.220001000000011,93.976661,"EOG"
"1148",-1.7279811633231,-0.800003000000004,92.352762,"EOG"
"1149",-0.679609344006414,0.0999989999999968,91.725124,"EOG"
"1150",0.184640796996913,1.229996,91.894486,"EOG"
"1151",-6.02775121893603,-3.27999899999999,86.355315,"EOG"
"1152",-2.84956287867169,-1.629997,83.894566,"EOG"
"1153",-0.629378069611802,-1.5,83.366552,"EOG"
"1154",3.82408882641566,2.15999600000001,86.554563,"EOG"
"1155",0.667589298556096,0.440001999999993,87.132392,"EOG"
"1156",-3.37296719686061,-0.599998999999997,84.193445,"EOG"
"1157",0.650804822156891,0.0899969999999968,84.74138,"EOG"
"1158",3.35485449965529,3.66999800000001,87.58433,"EOG"
"1159",-1.37907317439089,-2.510002,86.376478,"EOG"
"1160",4.36842539470062,3.449997,90.14977,"EOG"
"1161",-1.08514641801083,0.240005999999994,89.171513,"EOG"
"1162",1.35452787483823,-0.0499949999999956,90.379366,"EOG"
"1163",-0.198807546403902,-1.01999600000001,90.199685,"EOG"
"1164",0.475874167409787,0.720001000000011,90.628922,"EOG"
"1165",1.69622341971583,1.099999,92.166191,"EOG"
"1166",0.725655462966888,1.05999799999999,92.835,"EOG"
"1167",-5.2688188721926,-4.23000399999999,87.943692,"EOG"
"1168",0.919415573319356,-0.209998999999996,88.75226,"EOG"
"1169",0.134962197018968,0.869995000000003,88.872042,"EOG"
"1170",3.9200247024818,1.529999,92.355848,"EOG"
"1171",4.0964130392696,1.589997,96.139125,"EOG"
"1172",-1.16290636096387,0.790000000000006,95.021117,"EOG"
"1173",1.05053069414034,0.480003000000011,96.019343,"EOG"
"1174",-0.415845378154694,-1.199997,95.620051,"EOG"
"1175",0.167027729361909,-0.650001000000003,95.779763,"EOG"
"1176",-0.719118505231638,-1.39,95.090993,"EOG"
"1177",-2.16250870363715,-0.639999000000003,93.034642,"EOG"
"1178",1.71674546777962,-0.159995999999992,94.63181,"EOG"
"1179",2.23628080240671,0.979996,96.748043,"EOG"
"1180",-0.443664788134268,0.409996000000007,96.318806,"EOG"
"1181",-1.22292525096292,-1.18000000000001,95.140899,"EOG"
"1182",-1.58429762157283,7.120003,93.633584,"EOG"
"1183",-2.8997886057635,-2.00999400000001,90.918408,"EOG"
"1184",0.93324445364243,1.87000200000001,91.766899,"EOG"
"1185",-0.348090655215441,-1.239997,91.447467,"EOG"
"1186",1.55004730748857,1.489998,92.864946,"EOG"
"1187",-3.11727635097101,-1.68000099999999,89.970089,"EOG"
"1188",-0.454893403517693,-0.909996000000007,89.560821,"EOG"
"1189",-0.735626351616408,-0.660003000000003,88.901988,"EOG"
"1190",1.47092436223136,1.39,90.209669,"EOG"
"1191",0.132781775310583,0.290001000000004,90.329451,"EOG"
"1192",-0.994587025664543,-0.260002,89.431046,"EOG"
"1193",-1.13851514159859,-0.349998000000014,88.41286,"EOG"
"1194",-0.959691836685292,-0.360000999999997,87.564369,"EOG"
"1195",-1.74418432684645,-0.689994999999996,86.037085,"EOG"
"1196",0.417682677185065,0.130004999999997,86.396447,"EOG"
"1197",-0.970542226117226,-1.34000400000001,85.557933,"EOG"
"1198",-0.37335170310859,0.190002000000007,85.238501,"EOG"
"1199",2.93945690105461,2.790001,87.74405,"EOG"
"1200",-1.25142046668692,-0.0599979999999931,86.646003,"EOG"
"1201",4.4470049010801,4.58000200000001,90.499155,"EOG"
"1202",-1.24642047762766,0.129997000000003,89.371155,"EOG"
"1203",1.28448826693578,0.930000000000007,90.519117,"EOG"
"1204",-1.85266942009609,-2.25,88.842097,"EOG"
"1205",-0.179779637574283,-0.360000999999997,88.682377,"EOG"
"1206",1.26069692516248,0.279998999999989,89.800393,"EOG"
"1207",1.5562482003837,-0.129997000000003,91.19791,"EOG"
"1208",-0.875659321578744,-0.0600050000000039,90.399327,"EOG"
"1209",1.7447010418562,0.5,91.976525,"EOG"
"1210",-0.488383313024704,0.560005000000004,91.527327,"EOG"
"1211",-0.512598821988974,-0.820000000000007,91.058159,"EOG"
"1212",1.63341211411928,2.40999599999999,92.545514,"EOG"
"1213",2.32984928907521,1.510002,94.701685,"EOG"
"1214",-0.632450204027517,-0.929999999999993,94.102744,"EOG"
"1215",-0.2439758823611,-0.970000999999996,93.873156,"EOG"
"1216",1.77583781246259,1.599998,95.540191,"EOG"
"1217",0.919441327053667,0.719993000000002,96.418627,"EOG"
"1218",-1.96707115524473,-2.05999799999999,94.522004,"EOG"
"1219",2.05031095193454,0.799994999999996,96.459999,"EOG"
"1220",1.55504874098122,1.199997,97.959999,"EOG"
"1221",0.0408340143000652,0.169998000000007,98,"EOG"
"1222",-0.7857112244898,0.190001999999993,97.230003,"EOG"
"1223",0.524524307584361,0.559997999999993,97.739998,"EOG"
"1224",-1.1765930259176,-1.24000599999999,96.589996,"EOG"
"1225",1.1491883693628,0.759994999999989,97.699997,"EOG"
"1226",0.583418646369055,0.289994000000007,98.269997,"EOG"
"1227",-1.57728304397934,-1.180001,96.720001,"EOG"
"1228",0.661703880668902,-0.190002000000007,97.360001,"EOG"
"1229",1.12982537869941,0.819999999999993,98.459999,"EOG"
"1230",1.30001931038005,1.519997,99.739998,"EOG"
"1231",-0.792060372810519,-1.050003,98.949997,"EOG"
"1232",-0.0505255194701982,-0.309996999999996,98.900002,"EOG"
"1233",0.495446906057699,0.279998000000006,99.389999,"EOG"
"1234",-4.87976461293656,-4.15999599999999,94.540001,"EOG"
"1235",0.57118785094998,-1.129997,95.080002,"EOG"
"1236",-1.66176058767857,-2.599998,93.5,"EOG"
"1237",0,-0.980002999999996,93.5,"EOG"
"1238",-2.02138930481284,-2.44000200000001,91.610001,"EOG"
"1239",1.96485425210289,1.650002,93.410004,"EOG"
"1240",-1.93770037736001,-2.440003,91.599998,"EOG"
"1241",-0.949776221610838,-1.259995,90.730003,"EOG"
"1242",-0.286566726995479,0.150001000000003,90.470001,"EOG"
"1243",1.47010278025752,1.24000500000001,91.800003,"EOG"
"1244",-1.6775609473564,-1.220001,90.260002,"EOG"
"1245",0.221578767525394,-0.139999000000003,90.459999,"EOG"
"1246",1.1386237136704,0.319999999999993,91.489998,"EOG"
"1247",-1.34440488237851,-0.140000000000001,90.260002,"EOG"
"1248",-1.22978060647506,-0.0999979999999994,89.150002,"EOG"
"1249",-0.168257988373349,-0.129997000000003,89,"EOG"
"1250",0.168541573033709,0.599998999999997,89.150002,"EOG"
"1251",-0.515984284554468,-0.729996,88.690002,"EOG"
"1252",0.0789265964837763,-0.259995000000004,88.760002,"EOG"
"1253",1.13789429612677,0.75,89.769997,"EOG"
"1254",-0.846602456720594,-0.540001000000004,89.010002,"EOG"
"1255",-1.83126049137713,-0.850005999999993,87.379997,"EOG"
"1256",2.63218480083034,2.68000000000001,89.68,"EOG"
"1257",-0.635592105263169,-0.260002,89.110001,"EOG"
"1258",-0.0224497809174052,-0.930001000000004,89.089996,"EOG"
"1259",1.48165681812355,0.0200049999999976,90.410004,"EOG"
